ID,Name,BirthDate,Sex,DateTime,TimeBase,LPF,HPF,MainsFilter
00001b,sinewave,1,Laki-Laki,03/09/2022 11:01:21,50 mm/s,150 Hz,Off,Off


I,II,V1,V2,V3,V4,V5,V6
0.0810623,-0.8217494,0.1791239,0.3031015,0.2951543,0.3031015,0.2697229,0.2776702
0.0413259,-0.8471807,0.1690610,0.2850914,0.2723757,0.3057543,0.2676074,0.2803230
0.0254313,-0.8265177,0.1944733,0.2389781,0.2246730,0.2739461,0.2723567,0.2628199
0.0381470,-0.7581711,0.1833057,0.2214527,0.2039687,0.2437051,0.2532419,0.2262211
0.0588099,-0.6945928,0.1202218,0.1996946,0.2171787,0.2346627,0.2235365,0.1965157
0.0460943,-0.6548564,0.0650899,0.1397943,0.1842992,0.1922464,0.1763519,0.1747624
0.0031789,-0.6055832,0.0438499,0.1090177,0.1201439,0.1026599,0.1169650,0.1408068
-0.0079473,-0.5213420,0.0353130,0.1068385,0.0909440,0.0353130,0.0877651,0.0782283
0.0095367,-0.4148483,-0.0013097,0.0702159,0.0718053,0.0257111,0.0606791,0.0209427
0.0079473,-0.2956390,-0.0501331,0.0245714,0.0261609,0.0341082,0.0118558,-0.0056283
0.0127157,-0.1716614,-0.0772349,-0.0025304,-0.0247828,-0.0009410,-0.0327301,-0.0422668
0.0206629,-0.0747045,-0.0916020,-0.0296132,-0.0598129,-0.0693496,-0.0661707,-0.1090860
-0.0047684,0.0095367,-0.1176278,-0.0492811,-0.0810703,-0.0937859,-0.1001438,-0.1398802
-0.0174840,0.1207987,-0.1410182,-0.0837978,-0.1203553,-0.1060502,-0.1473761,-0.1298920
0.0222524,0.2352397,-0.1511478,-0.1463795,-0.1829370,-0.1654530,-0.2115472,-0.1749897
0.0381470,0.3210704,-0.1596769,-0.1898766,-0.2232552,-0.2041817,-0.2518654,-0.2439181
0.0206629,0.4005432,-0.1660935,-0.2217245,-0.2455664,-0.2233140,-0.2678188,-0.2535137
0.0095367,0.4863739,-0.1433722,-0.2546342,-0.2689393,-0.2562237,-0.2737077,-0.2514553
-0.0190735,0.5690257,-0.1058197,-0.2409236,-0.2695338,-0.2663549,-0.2552287,-0.2631760
-0.0476837,0.6357829,-0.0899792,-0.2282619,-0.2600511,-0.2727667,-0.2473354,-0.2616405
-0.0413259,0.6771088,-0.0836468,-0.2712027,-0.2616660,-0.2982235,-0.2616660,-0.2743816
-0.0492732,0.6961823,-0.0667079,-0.2908214,-0.2685690,-0.3051265,-0.2653901,-0.3019476
-0.0826518,0.7088979,-0.0503031,-0.2728271,-0.2791850,-0.2998479,-0.2585220,-0.3030268
-0.0890096,0.7327398,-0.0402546,-0.2754943,-0.2802626,-0.3056939,-0.2564208,-0.2818521
-0.0794729,0.7454554,-0.0397301,-0.2781487,-0.2606646,-0.3035800,-0.2511279,-0.2702014
-0.0858307,0.7295609,-0.0370725,-0.2595965,-0.2373441,-0.2802595,-0.2468808,-0.2739016
-0.0905991,0.7279714,-0.0238276,-0.2415832,-0.2145624,-0.2479410,-0.2336359,-0.2701934
-0.0937780,0.7422765,-0.0116523,-0.2262290,-0.1976188,-0.2214607,-0.2023872,-0.2405341
-0.0794729,0.7311503,-0.0254154,-0.2129714,-0.2002557,-0.2082030,-0.1875401,-0.2097925
-0.0413259,0.6930033,-0.0508086,-0.2065754,-0.2065754,-0.2018070,-0.2002176,-0.1906808
-0.0190735,0.6500880,-0.0629584,-0.1917044,-0.1932939,-0.1805782,-0.1948833,-0.1615047
-0.0206629,0.5944570,-0.0740480,-0.1566998,-0.1566998,-0.1392158,-0.1566998,-0.1328580
-0.0143051,0.5149841,-0.0877682,-0.1163785,-0.1227363,-0.0973050,-0.1084312,-0.1195574
-0.0079473,0.4243851,-0.0930039,-0.0834672,-0.0898250,-0.0739304,-0.0707515,-0.0707515
-0.0079473,0.3258387,-0.1061837,-0.0569105,-0.0410159,-0.0537316,-0.0473738,0.0034889
-0.0174840,0.2113978,-0.1251841,-0.0298166,0.0067409,-0.0250483,-0.0171010,0.0274038
-0.0254313,0.1049042,-0.1219368,0.0068092,0.0354195,0.0147565,0.0258827,0.0274722
-0.0079473,0.0206629,-0.0741911,0.0593233,0.0704495,0.0672706,0.0736284,0.0752179
0.0190735,-0.0588099,0.0021648,0.1229636,0.1229636,0.1166058,0.1197847,0.1436265
0.0270208,-0.1684825,0.0504541,0.1776107,0.1585372,0.1362848,0.1394637,0.1633056
0.0270208,-0.2861023,0.0547711,0.2105379,0.1771593,0.1692120,0.1517280,0.1819277
0.0381470,-0.3592173,0.0818443,0.2248955,0.1994642,0.2376111,0.2010536,0.2582741
0.0667572,-0.4275640,0.1301130,0.2429644,0.2223015,0.2699852,0.2461433,0.3081322
0.0667572,-0.5499522,0.1455593,0.2568213,0.2441057,0.2615897,0.2552319,0.2901999
0.0206629,-0.6612142,0.1535654,0.2616485,0.2775431,0.2918482,0.2854904,0.2982060
0.0206629,-0.7136663,0.1679055,0.2696308,0.2902937,0.3284407,0.3252618,0.3284407
0.0476837,-0.7597605,0.1615874,0.2807967,0.2807967,0.3078175,0.3205331,0.3316593
0.0254313,-0.7979075,0.1674334,0.2802849,0.3041267,0.3009478,0.3232002,0.3390948
0.0063578,-0.8106232,0.2018738,0.2638626,0.3337987,0.3306198,0.3544617,0.3401566
0.0222524,-0.8503596,0.1860110,0.2654839,0.3099887,0.3036308,0.3370094,0.2940941
0.0333786,-0.8885066,0.1362371,0.2681621,0.2729305,0.2538570,0.2792883,0.2506781
0.0397364,-0.8360545,0.1420323,0.2485259,0.2866729,0.2675994,0.2532943,0.2628311
0.0556310,-0.7470449,0.1753569,0.2516508,0.2945662,0.3009240,0.2500614,0.2802610
0.0540415,-0.7216136,0.1642132,0.2675279,0.2611701,0.2913698,0.2468650,0.2516333
0.0286102,-0.7247925,0.1308282,0.2261957,0.2087116,0.2325535,0.2246062,0.2007643
0.0190735,-0.6771088,0.1053619,0.1482773,0.1435089,0.1514562,0.1594035,0.1482773
0.0476837,-0.5769730,0.0719261,0.1053047,0.1068942,0.1100731,0.1021258,0.0989469
0.0492732,-0.4911423,0.0284243,0.0888236,0.0999498,0.1047182,0.0872342,0.0729291
0.0143051,-0.4227956,-0.0129588,0.0490300,0.0522089,0.0569773,0.0506194,0.0506194
0.0000000,-0.3083547,-0.0464185,0.0076230,-0.0082715,-0.0098610,-0.0050926,0.0108020
-0.0111262,-0.1811981,-0.0820049,-0.0088898,-0.0152477,-0.0422684,-0.0343211,-0.0375001
-0.0429153,-0.1049042,-0.1239220,-0.0412703,-0.0380913,-0.0714699,-0.0651121,-0.0778278
-0.0397364,-0.0095367,-0.1488860,-0.0710026,-0.0948445,-0.1027918,-0.1123285,-0.1107391
-0.0015895,0.1398722,-0.1463238,-0.0827456,-0.1224820,-0.1336082,-0.1574500,-0.1447344
0.0174840,0.2749761,-0.1453479,-0.1072009,-0.1374006,-0.1771371,-0.1930316,-0.1850843
-0.0063578,0.3687541,-0.1369413,-0.1321729,-0.1607831,-0.1830355,-0.1862144,-0.1989301
-0.0127157,0.4418691,-0.1242765,-0.1592445,-0.2005704,-0.1878548,-0.2037493,-0.2069283
0.0111262,0.5133947,-0.1211373,-0.2180942,-0.2578306,-0.2514728,-0.2784936,-0.2467044
-0.0047684,0.5865097,-0.1068862,-0.2626530,-0.2801371,-0.2817265,-0.2928527,-0.2674214
-0.0397364,0.6437302,-0.0841538,-0.2589941,-0.2574046,-0.2669414,-0.2494574,-0.2589941
-0.0349681,0.6850561,-0.0693448,-0.2473640,-0.2505430,-0.2791532,-0.2489535,-0.2727954
-0.0333786,0.7216136,-0.0518847,-0.2473879,-0.2616930,-0.2839454,-0.2601035,-0.2855349
-0.0651677,0.7390976,-0.0344229,-0.2569469,-0.2553574,-0.2680731,-0.2378734,-0.2633047
-0.0778834,0.7406871,-0.0307194,-0.2675486,-0.2405278,-0.2707275,-0.2278121,-0.2405278
-0.0651677,0.7454554,-0.0333675,-0.2733755,-0.2399969,-0.2908595,-0.2415864,-0.2606599
-0.0603994,0.7534027,-0.0344308,-0.2696705,-0.2426497,-0.2966913,-0.2410603,-0.2839756
-0.0651677,0.7470449,-0.0386667,-0.2516540,-0.2278121,-0.2786748,-0.2135070,-0.2564224
-0.0651677,0.7279714,-0.0418329,-0.2293889,-0.2071365,-0.2500518,-0.2007786,-0.2198521
-0.0683467,0.7009506,-0.0508229,-0.2208948,-0.2002319,-0.2288421,-0.2177159,-0.2208948
-0.0667572,0.6723404,-0.0592804,-0.1959737,-0.1943843,-0.2039210,-0.2150472,-0.2182261
-0.0381470,0.6437302,-0.0544834,-0.1562087,-0.1721032,-0.1577981,-0.1848189,-0.1784611
-0.0111262,0.5976359,-0.0544437,-0.1307376,-0.1418638,-0.1084852,-0.1561689,-0.1370955
-0.0111262,0.5086263,-0.0882928,-0.1216714,-0.1184924,-0.0867033,-0.1359765,-0.1137241
-0.0111262,0.3957748,-0.1221259,-0.1046419,-0.1062314,-0.0855684,-0.1125892,-0.0887473
-0.0174840,0.3019969,-0.1125288,-0.0680240,-0.0839186,-0.0727924,-0.0712029,-0.0537189
-0.0286102,0.2288818,-0.0844034,-0.0081094,-0.0224145,-0.0319513,-0.0112883,0.0030168
-0.0047684,0.1366933,-0.0790358,0.0497103,0.0385841,0.0306368,0.0497103,0.0481208
0.0206629,0.0317891,-0.0620031,0.0842269,0.0667429,0.0937637,0.1017110,0.0651534
0.0127157,-0.0667572,-0.0137266,0.1181984,0.1070722,0.1483981,0.1388613,0.1134300
0.0158946,-0.1700719,0.0356166,0.1548258,0.1611837,0.1977412,0.1627731,0.1850255
0.0413259,-0.2749761,0.0621859,0.1845741,0.1909320,0.2306684,0.1845741,0.2131844
0.0397364,-0.3798803,0.0818586,0.2169625,0.1978890,0.2392149,0.2042468,0.2217309
0.0349681,-0.4752477,0.1025836,0.2408663,0.2106667,0.2615293,0.2345085,0.2551715
0.0572205,-0.5483627,0.1338991,0.2435716,0.2403927,0.2912553,0.2610556,0.2880764
0.0540415,-0.6326040,0.1583258,0.2441565,0.2838929,0.2997875,0.2759457,0.3013770
0.0270208,-0.7216136,0.1620849,0.2479156,0.3035466,0.3019571,0.2955993,0.3003677
0.0333786,-0.7597605,0.1711194,0.2458239,0.2807919,0.2998654,0.3078127,0.3094021
0.0524521,-0.7740657,0.1838509,0.2537870,0.2728605,0.2887551,0.3173653,0.3459756
0.0556310,-0.8122126,0.1796389,0.2734168,0.3067954,0.2893114,0.3401740,0.3449424
0.0445048,-0.8455912,0.1833661,0.2914492,0.3184700,0.2962176,0.3454908,0.2930387
0.0111262,-0.8487701,0.1875957,0.2845526,0.2861420,0.2750158,0.3068050,0.2670685
-0.0158946,-0.8344650,0.1711528,0.2649307,0.2696991,0.2553940,0.2696991,0.2855937
0.0015895,-0.8026759,0.1658392,0.2723328,0.2866379,0.2771012,0.2739223,0.2866379
0.0365575,-0.7629395,0.1727120,0.2680794,0.2664900,0.2871529,0.2585427,0.2331114
0.0397364,-0.7247925,0.1398389,0.2050066,0.1954699,0.2240801,0.1922909,0.1732175
0.0381470,-0.6612142,0.0809860,0.1382065,0.1302592,0.1429749,0.1382065,0.1382065
0.0460943,-0.5706151,0.0417217,0.1052999,0.0846370,0.1100683,0.1132472,0.1100683
0.0445048,-0.4784266,0.0194073,0.0655015,0.0591437,0.0925223,0.0845750,0.0941118
0.0333786,-0.3767014,-0.0108639,0.0320514,0.0479460,0.0463565,0.0558933,0.0765562
0.0111262,-0.2702077,-0.0469700,0.0245555,0.0150188,0.0134293,0.0213766,0.0356817
-0.0127157,-0.1780192,-0.0682322,0.0144196,-0.0189590,0.0017039,-0.0316747,-0.0126012
-0.0015895,-0.0890096,-0.0873613,-0.0269620,-0.0412671,-0.0571616,-0.1016665,-0.0778246
0.0047684,0.0063578,-0.1340469,-0.0863632,-0.0958999,-0.1435836,-0.1642466,-0.1451731
-0.0206629,0.1239777,-0.1569160,-0.1251268,-0.1489687,-0.1648633,-0.1696316,-0.1505582
-0.0127157,0.2543132,-0.1331584,-0.1283900,-0.1665370,-0.1570002,-0.1728948,-0.1458740
0.0206629,0.3576279,-0.1279179,-0.1358652,-0.1914962,-0.2026224,-0.2344116,-0.2058013
0.0238419,0.4450480,-0.1406908,-0.1788378,-0.2328793,-0.2424161,-0.2789736,-0.2519528
0.0095367,0.5261103,-0.1328023,-0.2265803,-0.2615484,-0.2313487,-0.2583694,-0.2345276
-0.0127157,0.5785624,-0.1079432,-0.2446365,-0.2732468,-0.2255630,-0.2478155,-0.2287420
-0.0381470,0.6230672,-0.0857290,-0.2510325,-0.2701060,-0.2780533,-0.2732849,-0.2653376
-0.0476837,0.6675720,-0.0767549,-0.2627214,-0.2690792,-0.3294786,-0.2817949,-0.2992789
-0.0524521,0.6930033,-0.0725349,-0.2775749,-0.2807538,-0.3189007,-0.2680381,-0.3030062
-0.0603994,0.7168452,-0.0540098,-0.2797127,-0.2828916,-0.2860705,-0.2542814,-0.2924283
-0.0635783,0.7343292,-0.0381279,-0.2733676,-0.2622414,-0.2781359,-0.2479362,-0.2876727
-0.0619888,0.7359187,-0.0407775,-0.2712488,-0.2331018,-0.2776066,-0.2394597,-0.2823750
-0.0667572,0.7390976,-0.0466092,-0.2627754,-0.2230390,-0.2707227,-0.2325757,-0.2707227
-0.0683467,0.7534027,-0.0286055,-0.2368244,-0.2320560,-0.2431822,-0.2145720,-0.2511295
-0.0619888,0.7470449,-0.0158834,-0.2177445,-0.2320496,-0.2113867,-0.1954921,-0.2256918
-0.0524521,0.7088979,-0.0381072,-0.2081792,-0.2129475,-0.2018213,-0.1986424,-0.2065897
-0.0397364,0.6580353,-0.0730371,-0.1890675,-0.2001937,-0.2017832,-0.2097305,-0.2001937
-0.0174840,0.6230672,-0.0846624,-0.1736720,-0.2038717,-0.1816193,-0.1991034,-0.1832088
0.0047684,0.5944570,-0.0793378,-0.1604001,-0.1778841,-0.1413266,-0.1604001,-0.1365582
0.0222524,0.5308787,-0.0861772,-0.1243242,-0.1290925,-0.1004823,-0.1211452,-0.0845877
0.0127157,0.4259745,-0.1099523,-0.0702159,-0.0924683,-0.0654475,-0.0956472,-0.0543213
-0.0174840,0.3131231,-0.1146555,-0.0335932,-0.0383615,-0.0335932,-0.0542561,-0.0335932
-0.0190735,0.2145767,-0.0859801,-0.0208124,0.0157452,0.0046190,0.0093873,0.0157452
-0.0095367,0.1207987,-0.0705496,-0.0117397,0.0311756,0.0311756,0.0438913,0.0677331
-0.0079473,0.0333786,-0.0768487,0.0073926,0.0423606,0.0264661,0.0312344,0.0518974
0.0143051,-0.0015895,-0.0503270,0.0561666,0.0831874,0.0545772,0.0227880,0.0259670
0.0413259,-0.0174840,-0.0079219,0.1255925,0.1240031,0.1319504,0.0636037,0.0922139
0.0301997,-0.1239777,0.0027418,0.1489719,0.1298984,0.1696348,0.1298984,0.1791716
0.0206629,-0.2749761,0.0134357,0.1469501,0.1374133,0.1707919,0.1564868,0.1866865
0.0619888,-0.3528595,0.0558869,0.1941697,0.1782751,0.2196010,0.1703278,0.1894013
0.0890096,-0.4116694,0.0935523,0.2318350,0.2254772,0.2906450,0.2366034,0.2461402
0.0413259,-0.5356471,0.1269976,0.2144178,0.2462069,0.2986590,0.3050168,0.2891223
-0.0095367,-0.6755193,0.1588631,0.2129046,0.2431043,0.2558200,0.2955564,0.2876091
0.0174840,-0.7327398,0.1673873,0.2532180,0.2532180,0.2500391,0.2770599,0.2881861
0.0603994,-0.7279714,0.1769352,0.2866077,0.2897867,0.2897867,0.3088601,0.3072707
0.0476837,-0.7549922,0.1901944,0.2919197,0.2998670,0.2950986,0.3205299,0.3109932
0.0079473,-0.8042653,0.1880948,0.2945884,0.2945884,0.2834622,0.3120724,0.2977673
0.0174840,-0.7899602,0.2008041,0.3057082,0.3247817,0.3216028,0.3422658,0.2945820
0.0556310,-0.7470449,0.2119144,0.3056924,0.3390710,0.3438393,0.3422499,0.2961556
0.0397364,-0.7581711,0.1875448,0.2956279,0.3003963,0.3067541,0.2829123,0.2813228
0.0031789,-0.7724762,0.1663494,0.2664852,0.2426434,0.2648958,0.2362855,0.2394644
0.0254313,-0.7168452,0.1514848,0.2039369,0.1959896,0.2341366,0.2055264,0.2055264
0.0667572,-0.6405512,0.1170095,0.1535670,0.1726405,0.2060191,0.1694616,0.1980718
0.0778834,-0.5928675,0.0830730,0.1259883,0.1418829,0.1625458,0.1339356,0.1641353
0.0619888,-0.5324682,0.0634241,0.0920343,0.0745503,0.1031605,0.0952133,0.0999816
0.0254313,-0.4371007,0.0421556,0.0596396,0.0373872,0.0739447,0.0739447,0.0564607
0.0127157,-0.3385544,0.0102965,0.0500329,0.0500329,0.0548013,0.0579802,0.0277805
0.0286102,-0.2654394,-0.0384903,0.0314458,0.0266774,-0.0098801,-0.0019328,-0.0114695
0.0143051,-0.1939138,-0.0846370,-0.0194693,-0.0321849,-0.0687424,-0.0719213,-0.0464900
-0.0174840,-0.0858307,-0.1180983,-0.0529305,-0.0656462,-0.0799513,-0.1069721,-0.0735935
-0.0111262,0.0445048,-0.1430845,-0.0572538,-0.0842746,-0.0985797,-0.1287794,-0.1208321
-0.0015895,0.1557668,-0.1595799,-0.0960016,-0.1214329,-0.1484537,-0.1691167,-0.1738850
-0.0143051,0.2574921,-0.1607116,-0.1495854,-0.1575327,-0.1686589,-0.2004480,-0.1940902
-0.0127157,0.3687541,-0.1348241,-0.1634343,-0.1856867,-0.1666133,-0.2031708,-0.1904551
0.0079473,0.4529953,-0.1221577,-0.1936833,-0.2365987,-0.2127568,-0.2429565,-0.2238830
0.0206629,0.5197525,-0.1264366,-0.2520037,-0.2822034,-0.2631299,-0.2933296,-0.2790244
0.0190735,0.6039937,-0.1127179,-0.2700742,-0.2764320,-0.2637164,-0.2812004,-0.2732531
-0.0111262,0.6596247,-0.0878636,-0.2595250,-0.2579355,-0.2754196,-0.2595250,-0.2499882
-0.0588099,0.6786982,-0.0672293,-0.2627325,-0.2675009,-0.3120057,-0.2738587,-0.2754482
-0.0683467,0.7168452,-0.0481844,-0.2770662,-0.2738873,-0.3215710,-0.2754768,-0.2977292
-0.0588099,0.7470449,-0.0407839,-0.2823814,-0.2664868,-0.3014549,-0.2505922,-0.2760235
-0.0683467,0.7359187,-0.0418393,-0.2707211,-0.2627738,-0.2897946,-0.2405214,-0.2723106
-0.0762939,0.7438660,-0.0323105,-0.2421188,-0.2532450,-0.2802658,-0.2389399,-0.2850342
-0.0810623,0.7756551,-0.0143194,-0.2193594,-0.2352540,-0.2559169,-0.2225383,-0.2670431
-0.0810623,0.7740657,-0.0121991,-0.2204180,-0.2235969,-0.2490282,-0.2235969,-0.2426704
-0.0635783,0.7470449,-0.0201225,-0.2235730,-0.2219836,-0.2664884,-0.2474149,-0.2378782
-0.0476837,0.7263819,-0.0280507,-0.2028910,-0.2140172,-0.2473958,-0.2378591,-0.2219645
-0.0413259,0.6898244,-0.0481574,-0.1816718,-0.2039242,-0.2055136,-0.2039242,-0.1880296
-0.0206629,0.6373723,-0.0724872,-0.1869281,-0.1932859,-0.1901070,-0.1853387,-0.1567284
0.0015895,0.5801519,-0.0846275,-0.1736371,-0.1688687,-0.1688687,-0.1704582,-0.1243639
0.0000000,0.4975001,-0.0978184,-0.1232497,-0.1311970,-0.1168919,-0.1280181,-0.0962289
-0.0286102,0.3894170,-0.1173592,-0.0855700,-0.0871595,-0.0696754,-0.0792122,-0.0887489
-0.0445048,0.2940496,-0.1247183,-0.0627295,-0.0452455,-0.0293509,-0.0436560,-0.0611401
-0.0349681,0.2129873,-0.0960509,-0.0197570,-0.0006835,0.0231584,0.0088533,0.0183900
-0.0301997,0.1112620,-0.0604836,0.0237576,0.0412416,0.0587257,0.0603151,0.0825675
-0.0190735,0.0015895,-0.0545788,0.0550938,0.0757567,0.0773462,0.0805251,0.1027775
0.0063578,-0.0858307,-0.0402069,0.0948970,0.1123810,0.1155599,0.0948970,0.1282756
0.0190735,-0.1732508,0.0022411,0.1389345,0.1437028,0.1564185,0.1325766,0.1786709
0.0143051,-0.2797445,0.0489346,0.1760912,0.1808596,0.1824490,0.1856279,0.2237749
0.0158946,-0.3973643,0.0829220,0.1862367,0.2132575,0.2068996,0.2021313,0.2259731
0.0413259,-0.4816055,0.1073583,0.1836522,0.2265676,0.2345149,0.2059046,0.2440516
0.0683467,-0.5372365,0.1344252,0.2154875,0.2377399,0.2679396,0.2552239,0.3140338
0.0508626,-0.6326040,0.1546160,0.2579308,0.2626991,0.2865410,0.3087934,0.3389931
0.0222524,-0.7327398,0.1594416,0.2707036,0.2913666,0.2786509,0.3279241,0.2977244
0.0238419,-0.7740657,0.1711257,0.2601353,0.2998718,0.2712615,0.3221242,0.2712615
0.0127157,-0.7963181,0.1838525,0.2601465,0.2951145,0.2823989,0.3110091,0.2744516
-0.0047684,-0.8138021,0.1780303,0.2924712,0.3163131,0.3051869,0.3131342,0.2877029
0.0095367,-0.8074443,0.1743221,0.3189627,0.3253206,0.3189627,0.3205522,0.2919420
0.0365575,-0.7994970,0.1849222,0.3025421,0.2898264,0.3104893,0.3136683,0.2707529
0.0413259,-0.7979075,0.1828035,0.2654552,0.2495607,0.2829393,0.2797604,0.2479712
0.0572205,-0.7629395,0.1737785,0.2262306,0.2182833,0.2357674,0.2182833,0.2389463
0.0699361,-0.7104874,0.1695093,0.2124246,0.2028879,0.2060668,0.1774565,0.2235508
0.0365575,-0.6707509,0.1498683,0.2086782,0.1975520,0.2134466,0.1880153,0.1896048
0.0222524,-0.6167094,0.0809511,0.1477083,0.1508872,0.1826763,0.1874447,0.1524766
0.0492732,-0.5308787,0.0067282,0.0734854,0.0893799,0.1275269,0.1338847,0.1338847
0.0397364,-0.4418691,-0.0102886,0.0469319,0.0580581,0.0819000,0.0644159,0.0962051
0.0031789,-0.3528595,-0.0135390,0.0293763,0.0134818,0.0055345,0.0150712,0.0246080
0.0111262,-0.2431870,-0.0671212,0.0218884,-0.0289742,-0.0480477,-0.0162586,-0.0210269
0.0365575,-0.1319249,-0.1048040,0.0350682,-0.0189734,-0.0428152,-0.0555309,-0.0475836
0.0301997,-0.0413259,-0.0948000,0.0053358,-0.0169166,-0.0646003,-0.0963895,-0.0979789
-0.0015895,0.0476837,-0.1028172,-0.0630808,-0.0599019,-0.1123540,-0.1266591,-0.1441431
-0.0238419,0.1589457,-0.1293898,-0.0896533,-0.1071374,-0.1198530,-0.1484632,-0.1532316
-0.0174840,0.2813339,-0.1294692,-0.0913223,-0.1485427,-0.1262903,-0.1835108,-0.1628478
0.0015895,0.3910065,-0.1231782,-0.1279465,-0.1947037,-0.1724513,-0.2296718,-0.2026510
-0.0047684,0.4625320,-0.1195192,-0.1942237,-0.2196550,-0.2148867,-0.2514442,-0.2434969
-0.0301997,0.5133947,-0.1057863,-0.2393007,-0.2297640,-0.2218167,-0.2408902,-0.2520164
-0.0286102,0.5785624,-0.0962925,-0.2600066,-0.2615960,-0.2441120,-0.2425226,-0.2615960
-0.0238419,0.6421407,-0.0905053,-0.2780612,-0.2860085,-0.2891874,-0.2621667,-0.2780612
-0.0413259,0.6818771,-0.0757027,-0.2775637,-0.2696164,-0.3014056,-0.2505430,-0.2680270
-0.0683467,0.7025401,-0.0529432,-0.2595727,-0.2468570,-0.2929513,-0.2309624,-0.2516254
-0.0826518,0.7311503,-0.0291252,-0.2484703,-0.2357546,-0.2929751,-0.2246284,-0.2659543
-0.0778834,0.7565816,-0.0185442,-0.2426577,-0.2347104,-0.2887519,-0.2315315,-0.2808046
-0.0794729,0.7438660,-0.0280730,-0.2347024,-0.2490075,-0.2935123,-0.2474181,-0.2680810
-0.0953674,0.7263819,-0.0344245,-0.2346961,-0.2458223,-0.2966849,-0.2490012,-0.2490012
-0.0953674,0.7375081,-0.0286039,-0.2400017,-0.2288755,-0.2765592,-0.2256966,-0.2447701
-0.0667572,0.7327398,-0.0381279,-0.2304522,-0.2368100,-0.2479362,-0.2129682,-0.2368100
-0.0349681,0.6945928,-0.0598145,-0.2139918,-0.2426020,-0.2235285,-0.2251180,-0.2282969
-0.0286102,0.6484985,-0.0687885,-0.2023029,-0.2213764,-0.2007135,-0.2293237,-0.2245553
-0.0158946,0.6055832,-0.0729942,-0.1794879,-0.1906141,-0.1699511,-0.2001508,-0.1906141
0.0238419,0.5578995,-0.0925525,-0.1497730,-0.1561308,-0.1243416,-0.1513624,-0.1291100
0.0333786,0.4863739,-0.1099857,-0.1211119,-0.1195224,-0.0893227,-0.1147540,-0.0877333
0.0079473,0.3894170,-0.1088699,-0.0802596,-0.0818491,-0.0754913,-0.0897964,-0.0611862
0.0095367,0.2908707,-0.0987371,-0.0319799,-0.0335693,-0.0431061,-0.0494639,-0.0272115
0.0095367,0.1859665,-0.0843620,-0.0001208,0.0205421,0.0189527,0.0189527,0.0030581
-0.0095367,0.0762939,-0.0620429,0.0237878,0.0635242,0.0698821,0.0698821,0.0301456
0.0031789,-0.0047684,-0.0296656,0.0720596,0.1038488,0.0959015,0.0752385,0.0625229
0.0270208,-0.0842412,-0.0047032,0.1224534,0.1367585,0.1240428,0.0922537,0.1049693
0.0317891,-0.1891454,0.0255680,0.1463668,0.1511351,0.1717981,0.1590824,0.1654402
0.0476837,-0.2924601,0.0627295,0.1660442,0.1724021,0.1994228,0.1930650,0.2041912
0.0429153,-0.3910065,0.0829268,0.1767047,0.2164412,0.2180306,0.1941888,0.2021360
0.0190735,-0.4816055,0.1100000,0.1926517,0.2530511,0.2753035,0.2514617,0.2371566
0.0460943,-0.5578995,0.1407893,0.2250306,0.2552303,0.3172191,0.3076824,0.2965562
0.0810623,-0.6469091,0.1366218,0.2431154,0.2383471,0.2876202,0.2923886,0.2844413
0.0588099,-0.7311503,0.1403793,0.2341572,0.2452834,0.2691253,0.2770726,0.2611780
0.0286102,-0.7692973,0.1727136,0.2442392,0.2760283,0.3046385,0.3125858,0.2966913
0.0286102,-0.7851919,0.1986853,0.2829266,0.3004106,0.3178946,0.3353786,0.3163052
0.0270208,-0.8010864,0.2092918,0.3141960,0.3237327,0.3062487,0.3348589,0.3046592
0.0174840,-0.8169810,0.2034712,0.2972492,0.3179121,0.3067859,0.3369856,0.3036070
0.0158946,-0.8281072,0.1775169,0.2458636,0.2681160,0.2808317,0.2951368,0.2776527
0.0317891,-0.8058548,0.1457183,0.2347279,0.2506224,0.2442646,0.2442646,0.2363173
0.0349681,-0.7597605,0.1435693,0.2754943,0.2818521,0.2611891,0.2611891,0.2500629
0.0238419,-0.7200241,0.1673810,0.2802324,0.2738746,0.2834113,0.2722851,0.2675168
0.0333786,-0.6628036,0.1593987,0.2229770,0.2197981,0.2468189,0.2134403,0.2213875
0.0540415,-0.5817413,0.1031907,0.1620007,0.1588217,0.1874320,0.1540534,0.1524639
0.0588099,-0.5102158,0.0443347,0.1095025,0.1015552,0.1381127,0.1269865,0.1079130
0.0476837,-0.4355113,0.0119623,0.0644143,0.0675933,0.1025613,0.0818984,0.0930246
0.0333786,-0.3290176,-0.0045379,0.0542720,0.0622193,0.0797033,0.0240723,0.0860612
0.0190735,-0.2415975,-0.0353305,0.0346057,0.0314267,0.0409635,-0.0242043,0.0203005
-0.0063578,-0.1827876,-0.0830619,-0.0401465,-0.0433254,-0.0321992,-0.0687567,-0.0798829
-0.0286102,-0.0810623,-0.1287015,-0.0873756,-0.0969124,-0.0969124,-0.1016808,-0.1048597
-0.0158946,0.0588099,-0.1430957,-0.0842857,-0.1113065,-0.1176643,-0.1160749,-0.0954119
0.0095367,0.1716614,-0.1383940,-0.1034260,-0.1383940,-0.1240889,-0.1431624,-0.1447519
-0.0127157,0.2543132,-0.1522319,-0.1570002,-0.1887894,-0.1760737,-0.2062734,-0.1999156
-0.0254313,0.3703435,-0.1501942,-0.1835728,-0.2153619,-0.2280776,-0.2550983,-0.2074146
0.0015895,0.5022685,-0.1047087,-0.1825921,-0.2143812,-0.2207390,-0.2493493,-0.2096128
0.0015895,0.5753835,-0.0862137,-0.2054230,-0.2372122,-0.2229071,-0.2388016,-0.2356227
-0.0349681,0.5896886,-0.1121966,-0.2520688,-0.2743212,-0.2727318,-0.2663740,-0.2600161
-0.0381470,0.6310145,-0.1010990,-0.2664026,-0.2775288,-0.2934233,-0.2807077,-0.2664026
-0.0254313,0.6961823,-0.0651105,-0.2542559,-0.2606138,-0.2796872,-0.2733294,-0.2733294
-0.0508626,0.7200241,-0.0550683,-0.2680556,-0.2680556,-0.2903080,-0.2807713,-0.2855396
-0.0778834,0.7184347,-0.0487185,-0.2919054,-0.2807792,-0.3141578,-0.2855476,-0.2823687
-0.0619888,0.7327398,-0.0381263,-0.2924395,-0.2701871,-0.3162813,-0.2685976,-0.2765449
-0.0492732,0.7406871,-0.0418361,-0.2818441,-0.2532339,-0.3040965,-0.2452866,-0.2866125
-0.0651677,0.7343292,-0.0407775,-0.2696594,-0.2537648,-0.2839645,-0.2251546,-0.2839645
-0.0747045,0.7295609,-0.0312408,-0.2442280,-0.2442280,-0.2537648,-0.2108494,-0.2458175
-0.0667572,0.7136663,-0.0397046,-0.2224922,-0.2177238,-0.2352079,-0.2034187,-0.2081871
-0.0556310,0.6818771,-0.0566339,-0.2108113,-0.2012746,-0.2251164,-0.1933273,-0.2028640
-0.0270208,0.6500880,-0.0634909,-0.1906474,-0.2113104,-0.2033631,-0.1938264,-0.1985947
0.0031789,0.6135305,-0.0708739,-0.1503468,-0.1980305,-0.1503468,-0.1837254,-0.1773675
0.0174840,0.5594889,-0.0814295,-0.0957346,-0.1481867,-0.0989135,-0.1465972,-0.1465972
0.0238419,0.4816055,-0.0940911,-0.0638914,-0.1274697,-0.0893227,-0.1179330,-0.1004489
0.0111262,0.3782908,-0.1093912,-0.0648864,-0.1221069,-0.0696548,-0.0903177,-0.0474024
-0.0063578,0.2717972,-0.1156839,-0.0632318,-0.0807158,-0.0171375,-0.0298532,-0.0123692
0.0015895,0.1684825,-0.1108440,-0.0297817,-0.0281922,0.0115442,0.0115442,0.0194915
0.0095367,0.0572205,-0.0938129,0.0110912,0.0206280,0.0301647,0.0301647,0.0540066
-0.0127157,-0.0508626,-0.0550715,0.0434748,0.0736745,0.0863902,0.0800323,0.0943375
-0.0111262,-0.1398722,-0.0115665,0.0822115,0.1076428,0.1346636,0.1394320,0.1330741
0.0190735,-0.2145767,0.0176334,0.1241271,0.1273060,0.1432006,0.1654530,0.1575057
0.0333786,-0.2972285,0.0388861,0.1549164,0.1708110,0.1628637,0.1867056,0.1755794
0.0476837,-0.3814697,0.0717958,0.2037207,0.2275626,0.2227942,0.2243837,0.2275626
0.0715256,-0.4545848,0.1327817,0.2742434,0.2949063,0.2821906,0.2742434,0.2869590
0.0572205,-0.5594889,0.1852989,0.3060977,0.3426552,0.3251712,0.3108660,0.3076871
0.0190735,-0.6898244,0.1747767,0.2749125,0.3098806,0.3384908,0.3130595,0.3019333
0.0127157,-0.7534027,0.1568031,0.2569389,0.2760124,0.3284645,0.3284645,0.3125699
0.0143051,-0.7836024,0.1902024,0.2839804,0.3125906,0.3316641,0.3570954,0.3348430
-0.0031789,-0.8440018,0.2161980,0.2877235,0.3195127,0.3258705,0.3369967,0.3354073
-0.0190735,-0.8789698,0.2029705,0.2681382,0.2776750,0.3031063,0.3126431,0.3237693
-0.0095367,-0.8710225,0.2034982,0.2702554,0.2670765,0.2956867,0.3211180,0.3099918
0.0063578,-0.8567174,0.2013747,0.2697213,0.2617741,0.2856159,0.2903843,0.2649530
-0.0047684,-0.8249283,0.1690308,0.2421459,0.2373775,0.2564510,0.2485037,0.2214829
-0.0063578,-0.7820129,0.1488686,0.2076785,0.2267520,0.2283414,0.2426465,0.2267520
0.0238419,-0.7438660,0.1292499,0.1817020,0.2150806,0.2055438,0.2182595,0.2087228
0.0238419,-0.6914139,0.0910679,0.1753092,0.1880248,0.1721303,0.1625935,0.1466990
0.0127157,-0.6008148,0.0692813,0.1630592,0.1567014,0.1328595,0.1249123,0.1233228
0.0460943,-0.4784266,0.0617933,0.1237822,0.1269611,0.1253716,0.1142454,0.1190138
0.0651677,-0.3782908,0.0394805,0.0967010,0.1030588,0.1269007,0.0903432,0.0744486
0.0317891,-0.3274282,0.0018183,0.0781123,0.0669861,0.0955963,0.0367864,0.0129445
0.0095367,-0.2670288,-0.0363763,0.0208441,0.0081285,0.0367387,-0.0204817,-0.0300185
0.0095367,-0.1573563,-0.0682386,-0.0364494,-0.0555229,-0.0300916,-0.0761859,-0.0523440
0.0047684,-0.0429153,-0.1032845,-0.0635481,-0.1080529,-0.0762637,-0.1096423,-0.0778532
-0.0127157,0.0429153,-0.1420244,-0.1134141,-0.1483822,-0.1038774,-0.1340771,-0.1245403
-0.0301997,0.1478195,-0.1473983,-0.1537561,-0.1664718,-0.1458089,-0.1791875,-0.1839558
-0.0286102,0.2717972,-0.1368841,-0.1368841,-0.1845678,-0.1861572,-0.2258937,-0.2354304
-0.0079473,0.3703435,-0.1528374,-0.1369429,-0.2195946,-0.2116474,-0.2418470,-0.2593311
-0.0111262,0.4514058,-0.1581907,-0.2122323,-0.2456109,-0.2551476,-0.2583265,-0.2630949
-0.0270208,0.5435944,-0.1201105,-0.2647511,-0.2472671,-0.2854141,-0.2742879,-0.2774668
-0.0286102,0.6246567,-0.0862567,-0.2165922,-0.2404340,-0.2579180,-0.2642759,-0.2897072
-0.0254313,0.6739299,-0.0735728,-0.1784770,-0.2484131,-0.2356974,-0.2500025,-0.2738444
-0.0301997,0.7041295,-0.0629981,-0.2330701,-0.2664487,-0.2616803,-0.2569119,-0.2569119
-0.0476837,0.7216136,-0.0503000,-0.2807713,-0.2855396,-0.2934869,-0.2648767,-0.2664661
-0.0572205,0.7327398,-0.0413036,-0.2685960,-0.2956168,-0.3019746,-0.2638276,-0.2860800
-0.0476837,0.7502238,-0.0360139,-0.2712536,-0.2823798,-0.2950954,-0.2585379,-0.2855587
-0.0556310,0.7565816,-0.0418488,-0.2929831,-0.2675517,-0.2913936,-0.2500677,-0.2675517
-0.0778834,0.7422765,-0.0455554,-0.2792056,-0.2585427,-0.2855635,-0.2347008,-0.2537743
-0.0667572,0.7295609,-0.0370661,-0.2500534,-0.2389272,-0.2707163,-0.2278010,-0.2627691
-0.0286102,0.7232030,-0.0444667,-0.2336121,-0.2272542,-0.2669907,-0.2256648,-0.2638117
-0.0095367,0.7057190,-0.0672309,-0.2182293,-0.2166398,-0.2579657,-0.2039242,-0.2277660
-0.0222524,0.6643931,-0.0714461,-0.2001921,-0.1874765,-0.2288024,-0.1827081,-0.1922448
-0.0286102,0.6230672,-0.0650628,-0.1667881,-0.1556619,-0.1906300,-0.1699670,-0.1715565
-0.0127157,0.5833308,-0.0713889,-0.1047675,-0.1174831,-0.1317883,-0.1349672,-0.1222515
0.0015895,0.5022685,-0.0824563,-0.0522566,-0.0760984,-0.0856352,-0.1126560,-0.0745090
-0.0015895,0.3878276,-0.0845003,-0.0415850,-0.0495323,-0.0654268,-0.1242367,-0.0622479
0.0095367,0.3131231,-0.0712013,-0.0266965,0.0003242,0.0003242,-0.0727908,-0.0155703
0.0460943,0.2574921,-0.0457207,0.0289838,0.0639518,0.0830253,0.0416994,0.0782569
0.0556310,0.1351039,-0.0477552,0.0507911,0.0571489,0.0778119,0.0889381,0.1207272
0.0190735,-0.0254313,-0.0598462,0.0323423,0.0243950,0.0498263,0.0688998,0.1086362
-0.0079473,-0.1351039,-0.0332912,0.0779708,0.0890970,0.1049916,0.0970443,0.1320124
0.0000000,-0.2177556,0.0075626,0.1553822,0.1855818,0.1776346,0.1760451,0.1887608
0.0127157,-0.3258387,0.0219440,0.1745319,0.2015527,0.1967843,0.2095000,0.2095000
0.0222524,-0.4212062,0.0458527,0.1952616,0.1936722,0.2238719,0.2111562,0.2206930
0.0317891,-0.4975001,0.0951799,0.2604834,0.2398205,0.2763780,0.2588940,0.2541256
0.0381470,-0.5928675,0.1439889,0.2854506,0.2838612,0.2933979,0.3108819,0.2727350
0.0317891,-0.6739299,0.1811282,0.2749062,0.2971586,0.2939796,0.3146426,0.2717272
0.0206629,-0.7120768,0.1864481,0.2834050,0.2977101,0.3151941,0.2961206,0.2738682
0.0206629,-0.7518133,0.1854150,0.3014453,0.2903191,0.3395923,0.3014453,0.2887297
0.0270208,-0.8058548,0.1981688,0.3062518,0.2839994,0.3412199,0.3285042,0.3173780
0.0127157,-0.8392334,0.2029546,0.2935537,0.2903748,0.3221639,0.3237534,0.3285217
-0.0158946,-0.8455912,0.2034791,0.2718258,0.2972571,0.2924887,0.2877204,0.3115622
-0.0079473,-0.8233388,0.2029371,0.2633365,0.2871784,0.2712838,0.2792311,0.3030729
0.0397364,-0.7836024,0.1706076,0.2469015,0.2596172,0.2643855,0.2707434,0.2945852
0.0381470,-0.7629395,0.1340357,0.2150981,0.2421188,0.2500661,0.2389399,0.2659607
-0.0079473,-0.7390976,0.1287063,0.1938740,0.2240737,0.2113581,0.2256632,0.2113581
-0.0031789,-0.6675720,0.1048183,0.1731650,0.1795228,0.1572704,0.2017752,0.1525021
0.0333786,-0.5737940,0.0422494,0.1264906,0.1392063,0.1280801,0.1360273,0.1249011
0.0333786,-0.4895528,0.0045760,0.0888173,0.1253748,0.1221959,0.0840489,0.0967646
0.0238419,-0.3894170,0.0045061,0.1030525,0.1062314,0.0903368,0.0601371,0.0410636
0.0174840,-0.2892812,-0.0172853,0.0987450,0.0574191,0.0256300,0.0256300,-0.0013908
-0.0031789,-0.2161662,-0.0666142,0.0223955,0.0017325,-0.0141621,-0.0205199,-0.0189304
0.0000000,-0.1287460,-0.0921027,-0.0364717,-0.0380611,-0.0317033,-0.0666714,-0.0571346
0.0095367,-0.0174840,-0.1133664,-0.0402514,-0.0831668,-0.0736300,-0.1197243,-0.1165454
-0.0127157,0.0842412,-0.1399326,-0.0763543,-0.1288064,-0.1224486,-0.1574167,-0.1399326
-0.0254313,0.1827876,-0.1352342,-0.1368237,-0.1574866,-0.1558971,-0.1686128,-0.1352342
-0.0079473,0.2861023,-0.1326482,-0.1819213,-0.2073526,-0.2105316,-0.2089421,-0.1755635
-0.0111262,0.3767014,-0.1570813,-0.2222490,-0.2429120,-0.2635749,-0.2588065,-0.2349647
-0.0349681,0.4498164,-0.1528994,-0.2419090,-0.2355512,-0.2562141,-0.2482669,-0.2434985
-0.0397364,0.5245209,-0.1158635,-0.2398411,-0.2430201,-0.2446095,-0.2350728,-0.2414306
-0.0381470,0.6071726,-0.0899569,-0.2584394,-0.2600288,-0.2806918,-0.2568499,-0.2616183
-0.0397364,0.6643931,-0.0846974,-0.2754323,-0.2468220,-0.3008636,-0.2658955,-0.2865585
-0.0270208,0.6914139,-0.0788832,-0.2569024,-0.2489551,-0.2871021,-0.2600813,-0.3061755
-0.0317891,0.7263819,-0.0524171,-0.2336152,-0.2558676,-0.2844779,-0.2606360,-0.3035514
-0.0715256,0.7518133,-0.0254265,-0.2400033,-0.2479506,-0.2813292,-0.2479506,-0.2749713
-0.0699361,0.7502238,-0.0238355,-0.2702014,-0.2558963,-0.2797381,-0.2463595,-0.2638435
-0.0238419,0.7470449,-0.0349442,-0.2876679,-0.2717733,-0.3035625,-0.2701839,-0.2765417
-0.0254313,0.7438660,-0.0397110,-0.2749507,-0.2622350,-0.3051503,-0.2670034,-0.2685928
-0.0747045,0.7279714,-0.0402466,-0.2643601,-0.2421077,-0.2723074,-0.2309815,-0.2309815
-0.0921885,0.7104874,-0.0413005,-0.2526983,-0.2288564,-0.2447510,-0.2081935,-0.2002462
-0.0762939,0.6834666,-0.0471052,-0.2298927,-0.2203560,-0.2283033,-0.2012825,-0.1965141
-0.0588099,0.6421407,-0.0613769,-0.2012491,-0.1885335,-0.1933018,-0.1726389,-0.1789967
-0.0301997,0.6024043,-0.0719372,-0.1657152,-0.1418734,-0.1450523,-0.1291577,-0.1371050
0.0047684,0.5451838,-0.0930802,-0.1328166,-0.1232799,-0.1248693,-0.1232799,-0.1344061
0.0063578,0.4482269,-0.1232147,-0.1089096,-0.1073201,-0.1184464,-0.1343409,-0.1375198
-0.0286102,0.3528595,-0.1178646,-0.0558758,-0.0574652,-0.0701809,-0.0908438,-0.0654125
-0.0460943,0.2781550,-0.0759649,0.0130447,-0.0012604,-0.0012604,-0.0171550,0.0114552
-0.0270208,0.1811981,-0.0499328,0.0549714,0.0390768,0.0422557,0.0184139,0.0295401
-0.0031789,0.0651677,-0.0381915,0.0826073,0.0698916,0.0826073,0.0460498,0.0667127
0.0127157,-0.0429153,-0.0296370,0.1006985,0.0752672,0.1213614,0.0911617,0.1308982
0.0317891,-0.1446406,-0.0163174,0.1076603,0.0838184,0.1394494,0.1203760,0.1537546
0.0508626,-0.2304713,0.0171248,0.1442814,0.1442814,0.1569970,0.1522287,0.1569970
0.0413259,-0.3178914,0.0526778,0.1830133,0.1973184,0.1925500,0.2084446,0.2004973
0.0127157,-0.4371007,0.0606950,0.1814938,0.2053356,0.2307669,0.2466615,0.2561982
0.0286102,-0.5388260,0.0846100,0.1926931,0.2276611,0.2594503,0.2610397,0.2721659
0.0572205,-0.5896886,0.1381652,0.2398904,0.2796268,0.2828058,0.3082371,0.2843952
0.0301997,-0.6500880,0.1705154,0.2690617,0.3151560,0.3008509,0.3517135,0.3278716
0.0063578,-0.7247925,0.1732063,0.2717527,0.3289731,0.3162575,0.3337415,0.3416888
0.0365575,-0.7565816,0.1769463,0.2866189,0.3390710,0.3247658,0.3072818,0.3168186
0.0572205,-0.7661184,0.2002716,0.3131231,0.3306071,0.3194809,0.3178914,0.3115336
0.0603994,-0.8010864,0.2188396,0.3094387,0.2871863,0.3046703,0.3221544,0.3014914
0.0556310,-0.8344650,0.2109130,0.2840281,0.2554178,0.2872070,0.3062805,0.2744913
0.0333786,-0.8249283,0.1976538,0.2691793,0.2675899,0.2707688,0.2818950,0.2516953
0.0270208,-0.7899602,0.1769654,0.2580277,0.2596172,0.2564383,0.2405437,0.2214702
0.0317891,-0.7677078,0.1425139,0.2410603,0.2203973,0.2458286,0.2235762,0.2092711
0.0143051,-0.7406871,0.1329533,0.2124262,0.2044789,0.2235524,0.2346786,0.2235524
0.0111262,-0.6818771,0.1111905,0.1620531,0.1731793,0.1620531,0.1874844,0.1954317
0.0286102,-0.5976359,0.0486215,0.1185576,0.1201471,0.1296838,0.1280944,0.1296838
0.0317891,-0.4975001,0.0141176,0.0999482,0.0983588,0.1317374,0.1380952,0.0935904
0.0238419,-0.4037221,0.0188208,0.0712729,0.0744518,0.0808096,0.1141882,0.0601466
0.0222524,-0.3163020,-0.0034904,0.0362460,0.0410144,0.0187620,0.0187620,0.0028674
0.0254313,-0.1986821,-0.0533708,0.0197442,0.0197442,0.0070286,-0.0486024,-0.0295289
0.0317891,-0.0826518,-0.0958316,-0.0084114,-0.0338427,-0.0338427,-0.0878843,-0.0449689
0.0270208,-0.0127157,-0.1287285,-0.0492557,-0.1001183,-0.0985289,-0.1319075,-0.0953499
0.0047684,0.0588099,-0.1340818,-0.0784508,-0.1356713,-0.1134189,-0.1658710,-0.1563342
0.0015895,0.1843770,-0.1336368,-0.1241000,-0.1670154,-0.1288684,-0.2067518,-0.1908573
0.0079473,0.3131231,-0.1501449,-0.1962392,-0.2200810,-0.1914708,-0.2423334,-0.2073654
-0.0079473,0.4021327,-0.1507394,-0.2254438,-0.2524646,-0.2286228,-0.2476962,-0.2127282
-0.0238419,0.4673004,-0.1354233,-0.2180751,-0.2546326,-0.2403275,-0.2641694,-0.2355591
-0.0349681,0.5308787,-0.1291116,-0.2356052,-0.2578576,-0.2673944,-0.2673944,-0.2610366
-0.0603994,0.5928675,-0.1143265,-0.2589671,-0.2510198,-0.2748617,-0.2335358,-0.2462514
-0.0731150,0.6373723,-0.0931676,-0.2584712,-0.2393977,-0.2727763,-0.2425766,-0.2489344
-0.0635783,0.6723404,-0.0730546,-0.2558422,-0.2510738,-0.2908103,-0.2685579,-0.2923997
-0.0619888,0.7152557,-0.0434128,-0.2532212,-0.2484528,-0.2929576,-0.2405055,-0.2929576
-0.0747045,0.7390976,-0.0264788,-0.2474133,-0.2251609,-0.2807919,-0.2172136,-0.2776130
-0.0794729,0.7359187,-0.0333659,-0.2495321,-0.2320480,-0.2813212,-0.2399953,-0.2892685
-0.0794729,0.7359187,-0.0349553,-0.2463531,-0.2543004,-0.2733739,-0.2447637,-0.2701950
-0.0858307,0.7454554,-0.0201289,-0.2283478,-0.2474213,-0.2490107,-0.2188110,-0.2362951
-0.0842412,0.7359187,-0.0222413,-0.2336391,-0.2415864,-0.2431758,-0.2209234,-0.2511231
-0.0492732,0.7168452,-0.0418202,-0.2532180,-0.2579864,-0.2436813,-0.2389129,-0.2563969
-0.0143051,0.6993612,-0.0587511,-0.2383598,-0.2447176,-0.2192863,-0.2272336,-0.2145179
-0.0158946,0.6596247,-0.0703812,-0.2182007,-0.2086639,-0.2038956,-0.2134323,-0.1768748
-0.0333786,0.5944570,-0.0857083,-0.2128649,-0.1747179,-0.1890230,-0.2096860,-0.1572339
-0.0397364,0.5229314,-0.1026169,-0.1630163,-0.1312272,-0.1391745,-0.1630163,-0.1280483
-0.0254313,0.4466375,-0.1184559,-0.0914351,-0.1009719,-0.0993824,-0.0866667,-0.0930246
0.0047684,0.3687541,-0.1136255,-0.0532262,-0.0818364,-0.0691207,-0.0468683,-0.0500472
0.0190735,0.2940496,-0.0870800,-0.0107861,-0.0250912,-0.0187333,-0.0107861,-0.0060177
0.0143051,0.2002716,-0.0843700,0.0411971,0.0396077,0.0300709,0.0396077,0.0109975
0.0095367,0.0794729,-0.0932980,0.0561110,0.0688267,0.0672372,0.0608794,0.0100168
-0.0047684,-0.0349681,-0.0503111,0.0736666,0.0959190,0.1149925,0.0800244,0.0657193
-0.0063578,-0.1303355,0.0059128,0.1283010,0.1394272,0.1521428,0.1314799,0.1473745
0.0301997,-0.2352397,0.0255982,0.1654704,0.1734177,0.1797756,0.1654704,0.1718283
0.0619888,-0.3528595,0.0368134,0.1703278,0.1878119,0.2132432,0.1703278,0.1798646
0.0492732,-0.4402796,0.0670671,0.1862764,0.2069394,0.2387285,0.2053499,0.2212445
0.0238419,-0.4879634,0.1121251,0.2265660,0.2408711,0.2647130,0.2694813,0.2710708
0.0238419,-0.5610784,0.1587979,0.2589337,0.2684704,0.2954912,0.3082069,0.3050280
0.0254313,-0.6945928,0.1774311,0.2569040,0.2712091,0.3014088,0.3014088,0.3093561
0.0111262,-0.7867813,0.1859649,0.2670272,0.2781534,0.2940480,0.3019953,0.3083531
0.0047684,-0.7899602,0.2018595,0.2972269,0.3067636,0.3099426,0.3369633,0.3226582
0.0047684,-0.8090337,0.1907460,0.2765767,0.3131342,0.3035975,0.3385655,0.3210815
0.0190735,-0.8487701,0.1690547,0.2405802,0.2771378,0.2644221,0.3009796,0.2978007
0.0524521,-0.8376439,0.1780653,0.2559487,0.2511803,0.2432330,0.2782011,0.2766116
0.0333786,-0.8122126,0.1791016,0.2665218,0.2601639,0.2569850,0.2697007,0.2522167
-0.0158946,-0.8010864,0.1568254,0.2426561,0.2569612,0.2617296,0.2506034,0.2156353
-0.0015895,-0.7629395,0.1409101,0.2346881,0.2315092,0.2601194,0.2251514,0.2028990
0.0429153,-0.6993612,0.1175706,0.2336009,0.2113485,0.2494955,0.2161169,0.2145274
0.0429153,-0.6389618,0.0878604,0.1848173,0.1800489,0.2007119,0.2007119,0.1832279
0.0127157,-0.5737940,0.0729720,0.1142979,0.1413186,0.1429081,0.1492659,0.1127084
0.0031789,-0.4831950,0.0506560,0.0729084,0.1094659,0.1221816,0.0824451,0.0872135
0.0445048,-0.3798803,0.0039768,0.0484816,0.0643762,0.0850391,0.0294081,0.0834497
0.0683467,-0.2876918,-0.0395219,0.0192881,0.0208775,0.0208775,-0.0013749,0.0431299
0.0206629,-0.2034505,-0.0772111,-0.0199906,-0.0088644,-0.0215801,-0.0263484,-0.0184011
-0.0190735,-0.1017253,-0.1154391,-0.0518608,-0.0439135,-0.0613976,-0.0772921,-0.0693448
-0.0047684,0.0174840,-0.1329978,-0.0551144,-0.0773668,-0.1043876,-0.1282295,-0.1139243
0.0063578,0.1192093,-0.1341216,-0.0689538,-0.1102797,-0.1357110,-0.1404794,-0.1500161
0.0095367,0.2066294,-0.1516628,-0.1135159,-0.1437155,-0.1596101,-0.1596101,-0.1834520
0.0143051,0.3051758,-0.1543760,-0.1496077,-0.1702706,-0.1670917,-0.2004703,-0.2068281
-0.0031789,0.3973643,-0.1475557,-0.1777554,-0.2095445,-0.2000078,-0.2317969,-0.2270285
-0.0127157,0.4895528,-0.1370239,-0.2053706,-0.2451070,-0.2594121,-0.2466965,-0.2435176
-0.0031789,0.5865097,-0.1042366,-0.2043724,-0.2361615,-0.2615929,-0.2504667,-0.2377510
-0.0095367,0.6421407,-0.0746059,-0.2192465,-0.2430884,-0.2414989,-0.2605724,-0.2399095
-0.0206629,0.6739299,-0.0719817,-0.2674850,-0.2881479,-0.2738428,-0.2802006,-0.2658955
-0.0270208,0.7120768,-0.0635322,-0.2924140,-0.3083086,-0.3083086,-0.2908246,-0.2924140
-0.0445048,0.7375081,-0.0471306,-0.2791913,-0.2871386,-0.2998543,-0.2871386,-0.2934964
-0.0556310,0.7406871,-0.0413084,-0.2686008,-0.2733692,-0.2956216,-0.2781375,-0.2701902
-0.0619888,0.7343292,-0.0434256,-0.2738969,-0.2754863,-0.3040965,-0.2580023,-0.2627707
-0.0731150,0.7375081,-0.0391928,-0.2760220,-0.2664852,-0.2966849,-0.2346961,-0.2760220
-0.0810623,0.7454554,-0.0296640,-0.2569564,-0.2410618,-0.2871561,-0.2235778,-0.2728510
-0.0842412,0.7375081,-0.0275405,-0.2452962,-0.2150965,-0.2754958,-0.2135070,-0.2548329
-0.0667572,0.7247925,-0.0370630,-0.2421029,-0.1991876,-0.2500502,-0.1960087,-0.2405135
-0.0397364,0.7073085,-0.0513474,-0.2118826,-0.1928091,-0.2214193,-0.1880407,-0.2214193
-0.0349681,0.6628036,-0.0619125,-0.1731745,-0.1779429,-0.2017848,-0.1874797,-0.2017848
-0.0317891,0.6103516,-0.0677045,-0.1535352,-0.1360512,-0.1630720,-0.1630720,-0.1805560
-0.0015895,0.5737940,-0.0750875,-0.1148240,-0.0830348,-0.1036978,-0.1195923,-0.1370764
0.0222524,0.5086263,-0.0962289,-0.0660292,-0.0660292,-0.0692081,-0.1009973,-0.0962289
0.0190735,0.3925959,-0.1152261,-0.0421111,-0.0707213,-0.0500584,-0.0961526,-0.0659529
0.0127157,0.2765656,-0.1077334,-0.0234922,-0.0330289,-0.0091871,-0.0441551,-0.0139554
0.0270208,0.1748403,-0.0944153,-0.0085847,0.0232045,0.0279729,0.0200256,0.0422780
0.0349681,0.0619888,-0.0895691,0.0026194,0.0455348,0.0439453,0.0503031,0.0805028
0.0000000,-0.0445048,-0.0614293,0.0466537,0.0816218,0.0959269,0.0991058,0.1293055
-0.0333786,-0.1351039,-0.0121069,0.1214075,0.1468388,0.1690912,0.1643229,0.1833963
-0.0079473,-0.2415975,0.0181723,0.1612234,0.1930126,0.1930126,0.1787074,0.1977809
0.0254313,-0.3592173,0.0383949,0.1607831,0.2084668,0.2021090,0.1925723,0.1957512
0.0174840,-0.4529953,0.0882578,0.1931620,0.2328984,0.2424351,0.2487930,0.2281300
0.0317891,-0.5229314,0.1370525,0.2483145,0.2499040,0.2689775,0.2832826,0.2689775
0.0635783,-0.5992254,0.1455911,0.2727477,0.2457269,0.2822844,0.2838739,0.2759266
0.0429153,-0.6818771,0.1514673,0.2865712,0.2690872,0.3088236,0.2849817,0.2722661
0.0381470,-0.7263819,0.1838144,0.2871291,0.2998447,0.3077920,0.2807713,0.2918975
0.0635783,-0.7375081,0.2172089,0.2728399,0.2871450,0.3014501,0.2903239,0.3221130
0.0492732,-0.7692973,0.2214638,0.2818632,0.2643792,0.3168313,0.3231891,0.3152418
0.0429153,-0.8042653,0.2114185,0.2893019,0.2749968,0.3131437,0.3258594,0.2845335
0.0699361,-0.8153915,0.1886527,0.2474626,0.2776623,0.2760728,0.2840201,0.2744834
0.0778834,-0.8138021,0.1536862,0.2109067,0.2458747,0.2490536,0.2506431,0.2617693
0.0508626,-0.7947286,0.1563136,0.2294286,0.2326075,0.2548599,0.2500916,0.2437337
0.0238419,-0.7597605,0.1679373,0.2331050,0.2283367,0.2458207,0.2458207,0.2315156
0.0206629,-0.7232030,0.1138703,0.1822170,0.1917537,0.1965221,0.2203639,0.1822170
0.0238419,-0.6564458,0.0539573,0.1525036,0.1588615,0.1572720,0.1731666,0.1223040
0.0015895,-0.5499522,0.0464614,0.1545445,0.1497761,0.1418289,0.1243448,0.0989135
-0.0254313,-0.4482269,0.0310198,0.1200294,0.1168505,0.1009560,0.0898298,0.0834719
-0.0222524,-0.3735224,-0.0124741,0.0526937,0.0574621,0.0431569,0.0495148,0.0431569
-0.0047684,-0.2908707,-0.0427230,0.0208553,0.0033712,0.0081396,-0.0093444,-0.0220601
0.0190735,-0.1621246,-0.0698217,0.0175985,-0.0412114,-0.0189590,-0.0602849,-0.0857162
0.0317891,-0.0286102,-0.1027552,-0.0264613,-0.0725555,-0.0518926,-0.0836817,-0.0868607
0.0238419,0.0588099,-0.1293071,-0.0895707,-0.0991074,-0.0848023,-0.1165915,-0.0689077
0.0317891,0.1446406,-0.1431370,-0.1256529,-0.1479053,-0.1304213,-0.1812840,-0.1224740
0.0397364,0.2463659,-0.1495600,-0.1559178,-0.2163172,-0.1908859,-0.2338012,-0.1908859
0.0143051,0.3385544,-0.1432721,-0.1814191,-0.2322817,-0.2195660,-0.2259239,-0.1973136
-0.0095367,0.4227956,-0.1285013,-0.1968479,-0.2175109,-0.2191003,-0.2191003,-0.2063847
-0.0222524,0.5038579,-0.1147842,-0.2308146,-0.2562459,-0.2419408,-0.2514776,-0.2546565
-0.0397364,0.5690257,-0.1068862,-0.2610636,-0.2960316,-0.2928527,-0.2690109,-0.2912633
-0.0460943,0.6167094,-0.1000325,-0.2605677,-0.2748728,-0.3289143,-0.2573888,-0.2971252
-0.0476837,0.6707509,-0.0778166,-0.2542464,-0.2447097,-0.3257720,-0.2653726,-0.2955723
-0.0556310,0.7311503,-0.0428915,-0.2622366,-0.2495209,-0.3035625,-0.2606471,-0.2956152
-0.0635783,0.7597605,-0.0211906,-0.2643776,-0.2532514,-0.2723249,-0.2341779,-0.2866300
-0.0667572,0.7549922,-0.0233078,-0.2506002,-0.2474213,-0.2585475,-0.2394740,-0.2792104
-0.0715256,0.7613500,-0.0238434,-0.2352413,-0.2463675,-0.2781566,-0.2574937,-0.2749777
-0.0635783,0.7724762,-0.0206693,-0.2431933,-0.2574984,-0.2956454,-0.2527301,-0.2686246
-0.0460943,0.7581711,-0.0296609,-0.2633111,-0.2633111,-0.2807951,-0.2442376,-0.2569532
-0.0365575,0.7359187,-0.0412989,-0.2495178,-0.2479283,-0.2670018,-0.2368021,-0.2383916
-0.0524521,0.7104874,-0.0497643,-0.2230151,-0.2230151,-0.2627516,-0.2166573,-0.2166573
-0.0588099,0.6691615,-0.0624545,-0.2245792,-0.2086846,-0.2372948,-0.1991479,-0.2039162
-0.0413259,0.6198883,-0.0788403,-0.2075863,-0.1964601,-0.1901023,-0.1932812,-0.1901023
-0.0286102,0.5722046,-0.0909901,-0.1545684,-0.1577473,-0.1577473,-0.1656946,-0.1593367
-0.0317891,0.5133947,-0.0957203,-0.1116149,-0.0988992,-0.1306883,-0.1084359,-0.1132043
-0.0127157,0.4434586,-0.1009655,-0.0787131,-0.0612291,-0.0818920,-0.0659974,-0.0659974
0.0349681,0.3814697,-0.0993188,-0.0230249,-0.0436878,-0.0389194,-0.0484562,-0.0405089
0.0508626,0.3115336,-0.0796636,0.0315984,-0.0033696,-0.0065486,-0.0208537,-0.0065486
0.0222524,0.2066294,-0.0509930,0.0650374,0.0602690,0.0364272,0.0173537,0.0713952
0.0111262,0.0842412,-0.0397889,0.0889572,0.0873677,0.0905466,0.0587575,0.1302830
0.0301997,-0.0301997,-0.0222222,0.1128817,0.0874503,0.1462603,0.1112922,0.1478497
0.0508626,-0.1414617,0.0271320,0.1304468,0.1129627,0.1797199,0.1574675,0.1670043
0.0572205,-0.2606710,0.0600624,0.1474826,0.1570193,0.1840401,0.1792717,0.1919874
0.0397364,-0.3767014,0.0569550,0.1745749,0.1809327,0.1968273,0.1984167,0.2143113
0.0174840,-0.4688899,0.0633669,0.2032391,0.2095970,0.2382072,0.2461545,0.2477439
0.0015895,-0.5531311,0.0983858,0.2144162,0.2509737,0.2636894,0.2986574,0.2668683
0.0047684,-0.6373723,0.1334111,0.2128839,0.2637466,0.2701044,0.3114303,0.2653360
0.0254313,-0.7073085,0.1626046,0.2373091,0.2611510,0.2897612,0.3056558,0.2818139
0.0158946,-0.7708867,0.1854261,0.2696673,0.2760251,0.3078143,0.3221194,0.3141721
-0.0063578,-0.8042653,0.1801427,0.2802785,0.2993520,0.3072993,0.3390884,0.3231939
0.0158946,-0.8058548,0.1732635,0.2829361,0.3179042,0.2988307,0.3242620,0.3083674
0.0476837,-0.8201599,0.2087816,0.2930228,0.3184541,0.2930228,0.3057384,0.2850755
0.0508626,-0.8344650,0.2156798,0.2824370,0.2760792,0.2872054,0.2903843,0.2713108
0.0333786,-0.8090337,0.1685031,0.2591022,0.2463865,0.2972492,0.2638706,0.2765862
0.0254313,-0.7692973,0.1499303,0.2500661,0.2516556,0.2993393,0.2484767,0.2707291
0.0445048,-0.7422765,0.1599852,0.2251530,0.2267424,0.2426370,0.2474054,0.2362792
0.0540415,-0.7009506,0.1334699,0.1747958,0.1747958,0.1700274,0.2208900,0.2002271
0.0254313,-0.6357829,0.0926208,0.1434835,0.1530202,0.1418940,0.1705043,0.1705043
0.0127157,-0.5610784,0.0560093,0.1243560,0.1291243,0.1275349,0.1323032,0.1307138
0.0158946,-0.4768372,0.0172774,0.0983397,0.0760873,0.1142343,0.1126448,0.0840346
0.0015895,-0.3751119,-0.0214720,0.0691271,0.0389274,0.0897900,0.0786638,0.0484641
-0.0111262,-0.2702077,-0.0490967,0.0383234,0.0256077,0.0351445,0.0097132,0.0128921
-0.0063578,-0.1764297,-0.0740592,-0.0041231,-0.0088914,-0.0295544,-0.0470384,-0.0327333
0.0127157,-0.0683467,-0.0942580,-0.0449848,-0.0608794,-0.0688267,-0.0783634,-0.0767740
0.0317891,0.0476837,-0.1187007,-0.0710169,-0.0980377,-0.0932693,-0.1330058,-0.1091639
0.0174840,0.1319249,-0.1420736,-0.0975688,-0.1484315,-0.1341263,-0.2008835,-0.1341263
-0.0079473,0.2193451,-0.1500877,-0.1389615,-0.1930030,-0.1802874,-0.2327394,-0.1675717
-0.0031789,0.3401438,-0.1363913,-0.1761278,-0.1872540,-0.2063274,-0.2269904,-0.1904329
0.0095367,0.4418691,-0.1253287,-0.1936754,-0.1889070,-0.2413591,-0.2350012,-0.2127488
-0.0127157,0.5038579,-0.1227283,-0.2053801,-0.2435271,-0.2848530,-0.2626006,-0.2482955
-0.0492732,0.5658468,-0.1137749,-0.2329842,-0.2679523,-0.2965625,-0.2615945,-0.2536472
-0.0572205,0.6341934,-0.0942198,-0.2642918,-0.2436288,-0.2881336,-0.2499866,-0.2515761
-0.0413259,0.6882350,-0.0698789,-0.2669716,-0.2351824,-0.2876345,-0.2526665,-0.2765083
-0.0445048,0.7073085,-0.0577068,-0.2643363,-0.2468522,-0.2929465,-0.2595679,-0.2945360
-0.0731150,0.7184347,-0.0503063,-0.2696514,-0.2505779,-0.2950827,-0.2553463,-0.2839565
-0.0874201,0.7470449,-0.0264883,-0.2537807,-0.2442439,-0.2792120,-0.2347072,-0.2728542
-0.0858307,0.7613500,-0.0095431,-0.2320671,-0.2400144,-0.2622668,-0.2272987,-0.2670352
-0.0858307,0.7470449,-0.0190703,-0.2384154,-0.2495416,-0.2717940,-0.2479521,-0.2622573
-0.0715256,0.7359187,-0.0312440,-0.2601258,-0.2617153,-0.2823782,-0.2537680,-0.2569469
-0.0603994,0.7279714,-0.0370630,-0.2548186,-0.2564081,-0.2516397,-0.2214400,-0.2373346
-0.0556310,0.7057190,-0.0518815,-0.2267218,-0.2442058,-0.2108272,-0.1949326,-0.2140061
-0.0588099,0.6643931,-0.0688092,-0.2086814,-0.2213971,-0.1975552,-0.1848396,-0.1832501
-0.0667572,0.6230672,-0.0714334,-0.1842848,-0.1652114,-0.1731586,-0.1556746,-0.1413695
-0.0397364,0.5785624,-0.0735140,-0.1339134,-0.1148399,-0.1339134,-0.1227872,-0.1243766
0.0079473,0.5022685,-0.0941102,-0.0972891,-0.1100047,-0.1370255,-0.1211309,-0.1322571
0.0095367,0.4148483,-0.1131248,-0.0876935,-0.0924619,-0.1353772,-0.1194827,-0.1019986
0.0031789,0.3496806,-0.1051362,-0.0479158,-0.0193055,-0.0479158,-0.0765260,-0.0288423
0.0317891,0.2717972,-0.0854715,0.0194327,0.0289694,0.0385062,-0.0123564,0.0257905
0.0492732,0.1589457,-0.0647275,0.0433556,0.0179243,0.0592502,0.0322294,0.0497135
0.0445048,0.0508626,-0.0333977,0.0540225,0.0492541,0.0842222,0.0683276,0.0985273
0.0365575,-0.0476837,0.0085211,0.1070674,0.1181936,0.1388566,0.1150147,0.1483933
0.0238419,-0.1637141,0.0276677,0.1230351,0.1182667,0.1723083,0.1436981,0.1580032
0.0317891,-0.2781550,0.0250975,0.1013915,0.1172860,0.1872222,0.1633803,0.1776854
0.0683467,-0.3767014,0.0442489,0.1523320,0.1841211,0.2047841,0.1984262,0.2095524
0.0572205,-0.4704793,0.0729179,0.2318637,0.2509371,0.2318637,0.2398109,0.2334531
0.0000000,-0.5483627,0.0909646,0.2499104,0.2864679,0.2864679,0.2880573,0.2801100
-0.0127157,-0.6230672,0.1169713,0.2584330,0.3108851,0.3267797,0.3220113,0.3077062
0.0254313,-0.6961823,0.1557096,0.3003502,0.3257815,0.3210131,0.3210131,0.2908134
0.0206629,-0.7518133,0.1870044,0.3236977,0.3332345,0.3189294,0.3062137,0.2950875
0.0000000,-0.7836024,0.1886082,0.3094069,0.3189437,0.3316593,0.3078175,0.3141753
0.0492732,-0.7899602,0.1790921,0.2983014,0.2935330,0.3300905,0.3396273,0.3141960
0.0921885,-0.7963181,0.1987139,0.2956708,0.2781868,0.3242811,0.3544807,0.3115654
0.0508626,-0.8265177,0.2082570,0.2686564,0.2543513,0.3099823,0.2940877,0.2845510
0.0222524,-0.8328756,0.1849397,0.2389812,0.2262656,0.2755388,0.2199078,0.2326234
0.0381470,-0.7994970,0.1589616,0.2304872,0.2257188,0.2352556,0.2161821,0.2114137
0.0158946,-0.7820129,0.1255639,0.2002684,0.2352365,0.2034473,0.2384154,0.2098052
-0.0174840,-0.7629395,0.0889826,0.1557398,0.2081919,0.1907078,0.2240864,0.1954762
-0.0127157,-0.6930033,0.0719833,0.1419195,0.1482773,0.1594035,0.1721191,0.1689402
-0.0031789,-0.5928675,0.0464884,0.1259613,0.1068878,0.1005300,0.1021194,0.1148351
-0.0079473,-0.4752477,0.0103807,0.0803169,0.1009798,0.0628328,0.0517066,0.0501172
0.0047684,-0.3465017,-0.0034761,0.0537443,0.0903018,0.0410287,0.0362603,0.0124184
0.0270208,-0.2415975,-0.0268507,0.0478538,0.0478538,0.0128857,0.0176541,-0.0077772
0.0190735,-0.1637141,-0.0740592,0.0133610,-0.0200176,-0.0152493,-0.0375017,-0.0327333
0.0000000,-0.0810623,-0.0969028,-0.0317351,-0.0857766,-0.0523980,-0.1000818,-0.0635242
0.0158946,0.0333786,-0.1102193,-0.0593567,-0.1197561,-0.1006826,-0.1404190,-0.1054509
0.0127157,0.1509984,-0.1357301,-0.0848675,-0.1182461,-0.1293723,-0.1659298,-0.1420879
-0.0111262,0.2320608,-0.1469183,-0.1262554,-0.1405605,-0.1437394,-0.1993704,-0.1628129
0.0127157,0.3194809,-0.1395512,-0.1729298,-0.2015400,-0.1776981,-0.2301502,-0.1951822
0.0476837,0.4386902,-0.1306121,-0.2053165,-0.2418741,-0.2196217,-0.2418741,-0.2228006
0.0174840,0.5197525,-0.1269674,-0.2239243,-0.2461767,-0.2461767,-0.2366400,-0.2191559
-0.0429153,0.5483627,-0.1179997,-0.2546930,-0.2499247,-0.2578719,-0.2387985,-0.2308512
-0.0429153,0.6103516,-0.0878414,-0.2753973,-0.2563238,-0.2690395,-0.2483765,-0.2674500
-0.0301997,0.6834666,-0.0624545,-0.2595472,-0.2484210,-0.2913364,-0.2515999,-0.2833891
-0.0715256,0.6993612,-0.0540018,-0.2383788,-0.2367894,-0.3035466,-0.2510945,-0.2781153
-0.1001358,0.7088979,-0.0413020,-0.2352158,-0.2447526,-0.2813101,-0.2495209,-0.2717733
-0.0747045,0.7438660,-0.0264819,-0.2331114,-0.2521849,-0.2585427,-0.2490060,-0.2744373
-0.0683467,0.7454554,-0.0275405,-0.2373489,-0.2484751,-0.2691380,-0.2516540,-0.2770853
-0.0683467,0.7327398,-0.0328302,-0.2489964,-0.2489964,-0.2839645,-0.2521753,-0.2680699
-0.0445048,0.7438660,-0.0317701,-0.2415784,-0.2495257,-0.2685992,-0.2368100,-0.2511152
-0.0365575,0.7390976,-0.0375923,-0.2299166,-0.2458111,-0.2474006,-0.2187904,-0.2378639
-0.0429153,0.7025401,-0.0550540,-0.2298943,-0.2298943,-0.2362521,-0.2092314,-0.2187681
-0.0381470,0.6643931,-0.0709216,-0.2123833,-0.1901309,-0.2076149,-0.1980782,-0.1869520
-0.0445048,0.6182988,-0.0820192,-0.1757971,-0.1630815,-0.1837444,-0.1837444,-0.1646709
-0.0301997,0.5769730,-0.0936429,-0.1365582,-0.1524528,-0.1715263,-0.1683474,-0.1556317
-0.0031789,0.5276998,-0.1036676,-0.1068465,-0.1116149,-0.1179727,-0.1338673,-0.1306883
-0.0127157,0.4355113,-0.1126162,-0.0760587,-0.0553958,-0.0601641,-0.0951322,-0.0824165
-0.0111262,0.3369649,-0.0945361,-0.0309579,-0.0182422,-0.0246000,-0.0675154,-0.0261895
0.0222524,0.2511342,-0.0610892,0.0247415,0.0263309,0.0374571,-0.0165844,0.0279204
0.0333786,0.1319249,-0.0631253,0.0481367,0.0497262,0.0751575,0.0354211,0.0592629
0.0158946,0.0222524,-0.0731246,0.0238323,0.0254218,0.0460847,0.0381374,0.0635688
0.0095367,-0.0222524,-0.0434271,0.0233301,0.0233301,0.0503508,0.0376352,0.0948556
0.0063578,-0.0858307,-0.0068283,0.0774129,0.0837708,0.1155599,0.1012548,0.1330439
0.0079473,-0.2018611,0.0059652,0.1283534,0.1585531,0.1601426,0.1776266,0.1474269
0.0111262,-0.3067652,0.0192817,0.1607434,0.1909431,0.1798169,0.1973009,0.1639223
0.0190735,-0.3846486,0.0664902,0.2079519,0.1984151,0.2158991,0.2000046,0.2000046
0.0413259,-0.4736582,0.1126512,0.2493445,0.2382183,0.2541129,0.2461656,0.2636496
0.0476837,-0.5817413,0.1386865,0.2563063,0.3024006,0.2960428,0.3119373,0.3103479
0.0301997,-0.6739299,0.1657629,0.2515936,0.3135824,0.3247086,0.3247086,0.2849722
0.0286102,-0.7279714,0.1938788,0.2654044,0.2876568,0.3051408,0.2940146,0.2669938
0.0460943,-0.7677078,0.2060970,0.2998749,0.2951066,0.2823909,0.2855698,0.3078222
0.0540415,-0.8058548,0.2066549,0.3210958,0.2988434,0.2988434,0.3004328,0.3306325
0.0572205,-0.8312861,0.2093220,0.2999210,0.2824370,0.3078683,0.3094578,0.3110472
0.0667572,-0.8440018,0.2151616,0.2660243,0.2882767,0.2946345,0.3152974,0.2930450
0.0556310,-0.8598963,0.1939758,0.2353017,0.2941116,0.2861643,0.3068272,0.2957010
0.0365575,-0.8503596,0.1510477,0.2114471,0.2750254,0.2829727,0.2956883,0.3004567
0.0333786,-0.7979075,0.1234611,0.2140601,0.2553860,0.2585649,0.2871752,0.2760490
0.0286102,-0.7390976,0.1197116,0.2357419,0.2420998,0.2293841,0.2675311,0.2341525
0.0270208,-0.7041295,0.1212772,0.2150551,0.2150551,0.2055184,0.2261813,0.1832660
0.0381470,-0.6596247,0.0963497,0.1535702,0.1790015,0.1567491,0.1662858,0.1170127
0.0254313,-0.5737940,0.0576115,0.1116530,0.1450316,0.1068846,0.1005268,0.0719166
-0.0079473,-0.4657110,0.0294479,0.0993840,0.1041524,0.0930262,0.0660054,0.0755421
-0.0095367,-0.3639857,-0.0008202,0.0802422,0.0532214,0.0627581,0.0452741,0.0643476
0.0206629,-0.2638499,-0.0363747,0.0335614,0.0065406,0.0128984,-0.0029961,0.0065406
0.0365575,-0.1716614,-0.0724586,-0.0311327,-0.0406694,-0.0152381,-0.0549746,-0.0565640
0.0158946,-0.0937780,-0.1170222,-0.0836436,-0.0884120,-0.0423177,-0.0884120,-0.0947698
0.0015895,-0.0111262,-0.1637061,-0.1223803,-0.1319170,-0.0953595,-0.1239697,-0.1319170
0.0143051,0.1001358,-0.1812601,-0.1462921,-0.1621866,-0.1590077,-0.1749023,-0.1717234
0.0111262,0.2288818,-0.1675717,-0.1707506,-0.1818768,-0.1993608,-0.2263816,-0.2041292
-0.0174840,0.3512700,-0.1512384,-0.2005116,-0.2100484,-0.2036905,-0.2386586,-0.2227640
-0.0349681,0.4529953,-0.1332982,-0.2064133,-0.2413813,-0.2175395,-0.2318446,-0.2334340
-0.0365575,0.5308787,-0.1110983,-0.2160025,-0.2382549,-0.2509705,-0.2462022,-0.2477916
-0.0254313,0.5960464,-0.0936540,-0.2557786,-0.2224000,-0.2653154,-0.2541892,-0.2605470
-0.0206629,0.6532669,-0.0825644,-0.2732992,-0.2430995,-0.2796570,-0.2494574,-0.2685308
-0.0476837,0.6993612,-0.0587622,-0.2494971,-0.2685706,-0.2940019,-0.2590338,-0.2701600
-0.0715256,0.7295609,-0.0354783,-0.2373393,-0.2548234,-0.2834336,-0.2691285,-0.2675390
-0.0667572,0.7359187,-0.0328318,-0.2489980,-0.2458191,-0.2696609,-0.2617137,-0.2664820
-0.0667572,0.7343292,-0.0418377,-0.2723090,-0.2627722,-0.2802563,-0.2516460,-0.2643617
-0.0794729,0.7422765,-0.0370789,-0.2866236,-0.2643712,-0.2898026,-0.2484767,-0.2596029
-0.0731150,0.7438660,-0.0349585,-0.2765560,-0.2654298,-0.2908611,-0.2495352,-0.2670193
-0.0476837,0.7406871,-0.0391865,-0.2617105,-0.2760156,-0.2950891,-0.2442265,-0.2680683
-0.0492732,0.7311503,-0.0402403,-0.2564065,-0.2548170,-0.2818378,-0.2293857,-0.2500486
-0.0651677,0.7041295,-0.0497643,-0.2420886,-0.2134784,-0.2420886,-0.2214257,-0.2277835
-0.0524521,0.6707509,-0.0651026,-0.2129221,-0.1890802,-0.2002064,-0.2065643,-0.2129221
-0.0397364,0.6278356,-0.0788450,-0.1948754,-0.1599073,-0.1726230,-0.1773914,-0.1901070
-0.0270208,0.5753835,-0.0894022,-0.1704645,-0.1211913,-0.1434437,-0.1498016,-0.1498016
-0.0095367,0.5118052,-0.0994205,-0.1089573,-0.0898838,-0.0946522,-0.1312097,-0.1010100
-0.0143051,0.4275640,-0.0919485,-0.0553910,-0.0569805,-0.0379070,-0.0998958,-0.0522121
-0.0015895,0.3417333,-0.0818205,-0.0357262,-0.0182422,0.0071891,-0.0452630,-0.0087055
0.0508626,0.2527237,-0.0838629,-0.0043901,0.0130939,0.0480620,0.0019677,0.0369358
0.0699361,0.1255671,-0.0699965,0.0364971,0.0349077,0.0635179,0.0174236,0.0730546
0.0397364,0.0000000,-0.0180006,0.0710090,0.0694195,0.0853141,0.0551144,0.1091560
0.0254313,-0.0890096,0.0164922,0.1118596,0.1182175,0.1357015,0.1436488,0.1579539
0.0222524,-0.2002716,0.0102075,0.1357746,0.1421324,0.1675638,0.1898162,0.1945845
0.0047684,-0.3560384,0.0156037,0.1379919,0.1507076,0.1824967,0.1681916,0.1952124
-0.0015895,-0.4720688,0.0532961,0.1613792,0.1772738,0.2122418,0.1852210,0.2027051
0.0270208,-0.5070368,0.1063108,0.2112150,0.2255201,0.2350569,0.2588987,0.2461831
0.0524521,-0.5626678,0.1482121,0.2499374,0.2785476,0.2594741,0.3151051,0.2944422
0.0413259,-0.6834666,0.1588853,0.2685579,0.3003470,0.2955786,0.3225994,0.3003470
0.0286102,-0.7534027,0.1658154,0.2866141,0.3056876,0.3215822,0.3088665,0.2850246
0.0238419,-0.7661184,0.1811870,0.2988068,0.3099330,0.3226487,0.3035752,0.2924490
0.0047684,-0.8010864,0.1992178,0.3120693,0.3073009,0.3200165,0.3168376,0.3216060
0.0031789,-0.8265177,0.2320830,0.3369872,0.3115559,0.3306293,0.3290399,0.3544712
0.0270208,-0.8296967,0.2395105,0.3237518,0.2999099,0.3348780,0.3126256,0.3555409
0.0460943,-0.8344650,0.1981942,0.2760776,0.2585936,0.3015089,0.2697198,0.3015089
0.0413259,-0.8122126,0.1844025,0.2606964,0.2432124,0.2702332,0.2638753,0.2495702
0.0158946,-0.7804235,0.1902008,0.2458318,0.2394740,0.2728526,0.2807999,0.2410634
0.0158946,-0.7645289,0.1435661,0.2023760,0.2103233,0.2580070,0.2421125,0.2437019
0.0349681,-0.7136663,0.0852585,0.1869837,0.1933416,0.2028783,0.1869837,0.2140045
0.0254313,-0.6278356,0.0740719,0.1742077,0.1773866,0.1551342,0.1805655,0.1551342
0.0063578,-0.5610784,0.0740210,0.1264731,0.1344204,0.1280626,0.1534939,0.1010418
0.0270208,-0.4847844,0.0432475,0.0972891,0.1036469,0.0909313,0.0909313,0.0623210
0.0476837,-0.3751119,-0.0050322,0.0807985,0.0792090,0.0537777,0.0585461,0.0124518
0.0381470,-0.2527237,-0.0411447,0.0367387,0.0287914,0.0128969,0.0272020,-0.0268396
0.0238419,-0.1382828,-0.0650676,-0.0030788,-0.0157944,-0.0285101,-0.0316890,-0.0364574
0.0174840,-0.0476837,-0.1043367,-0.0121482,-0.0455268,-0.0502952,-0.0677792,-0.0582425
0.0174840,0.0349681,-0.1351213,-0.0349855,-0.0906165,-0.0906165,-0.1144584,-0.1065111
0.0365575,0.1478195,-0.1251237,-0.0996923,-0.1426077,-0.1553233,-0.1823441,-0.1521444
0.0635783,0.2749761,-0.1114241,-0.1400344,-0.1686446,-0.1861286,-0.2131494,-0.1797708
0.0381470,0.3576279,-0.1305612,-0.1448663,-0.1861922,-0.1989079,-0.2100341,-0.1846027
-0.0063578,0.4084905,-0.1502132,-0.1963075,-0.2424018,-0.2487596,-0.2344545,-0.2010759
-0.0127157,0.4831950,-0.1444372,-0.2668254,-0.2890778,-0.2890778,-0.2684148,-0.2493413
-0.0238419,0.5674362,-0.1211850,-0.2690045,-0.2737729,-0.2864885,-0.2705940,-0.2833096
-0.0492732,0.6262461,-0.0958014,-0.2515682,-0.2340841,-0.2738206,-0.2579260,-0.2865362
-0.0365575,0.6707509,-0.0767533,-0.2770249,-0.2372885,-0.2802038,-0.2547725,-0.2897406
-0.0254313,0.7073085,-0.0656478,-0.2881718,-0.2627405,-0.2865823,-0.2611510,-0.3024769
-0.0429153,0.7343292,-0.0450087,-0.2548170,-0.2452803,-0.2643538,-0.2500486,-0.2881956
-0.0619888,0.7438660,-0.0291268,-0.2262195,-0.2214511,-0.2405246,-0.2246300,-0.2421141
-0.0731150,0.7375081,-0.0248877,-0.2156226,-0.2362855,-0.2490012,-0.2331066,-0.2378750
-0.0603994,0.7343292,-0.0280603,-0.2235635,-0.2569421,-0.2664789,-0.2648894,-0.2855523
-0.0397364,0.7311503,-0.0402371,-0.2500455,-0.2579927,-0.2675295,-0.2564033,-0.2913713
-0.0572205,0.7104874,-0.0497659,-0.2516270,-0.2452691,-0.2548059,-0.2182484,-0.2389113
-0.0794729,0.6818771,-0.0518735,-0.2219454,-0.2171771,-0.2203560,-0.1981036,-0.1933352
-0.0445048,0.6548564,-0.0640297,-0.2039019,-0.1911863,-0.1848284,-0.1880074,-0.1593971
-0.0111262,0.6055832,-0.0920661,-0.1794863,-0.1842546,-0.1858441,-0.1715390,-0.1254447
-0.0270208,0.5340576,-0.1105674,-0.1423566,-0.1598406,-0.1868614,-0.1471249,-0.1169252
-0.0286102,0.4673004,-0.1068147,-0.1211198,-0.0988674,-0.1354249,-0.1099936,-0.1115831
-0.0047684,0.3910065,-0.0988086,-0.0892719,-0.0463565,-0.0543038,-0.0686089,-0.0781457
-0.0190735,0.2861023,-0.0955645,-0.0240390,-0.0145022,0.0029818,-0.0367546,-0.0224495
-0.0349681,0.1811981,-0.0902017,0.0369549,0.0401338,0.0433127,0.0051657,0.0353654
-0.0047684,0.0905991,-0.0699981,0.0714636,0.1032527,0.0984844,0.0619268,0.0857687
0.0254313,-0.0095367,-0.0323041,0.0900841,0.1298205,0.1457151,0.1012103,0.1155154
0.0349681,-0.1207987,0.0080395,0.1097647,0.1193015,0.1653957,0.1240698,0.1399644
0.0381470,-0.2304713,0.0404326,0.1437473,0.1214949,0.1898416,0.1469262,0.1850732
0.0413259,-0.3242493,0.0706959,0.1771895,0.1676528,0.2375889,0.1803684,0.2216943
0.0381470,-0.4084905,0.1014805,0.2143319,0.2286371,0.2779102,0.2381738,0.2254581
0.0397364,-0.5070368,0.1227395,0.2451277,0.2657906,0.2896325,0.2848641,0.2371804
0.0349681,-0.6135305,0.1455911,0.2552636,0.2711582,0.2918212,0.3029474,0.2648004
0.0079473,-0.7041295,0.1737229,0.2579641,0.2786271,0.2929322,0.3135951,0.2802165
-0.0047684,-0.7581711,0.1864703,0.2786589,0.3025007,0.3025007,0.3263426,0.2913745
0.0143051,-0.7772446,0.1976156,0.3088776,0.3120565,0.3343089,0.3311300,0.3152355
0.0286102,-0.7947286,0.2050495,0.3226693,0.3131326,0.3465112,0.3226693,0.3083642
0.0301997,-0.8153915,0.2130111,0.3258626,0.3353993,0.3306309,0.3147364,0.2908945
0.0286102,-0.8265177,0.2347406,0.3285185,0.3444131,0.3205713,0.3173923,0.2871927
0.0301997,-0.8265177,0.2199062,0.2930212,0.2882528,0.3105052,0.2977896,0.2532848
0.0254313,-0.8090337,0.1711496,0.2458541,0.2315489,0.2840010,0.2585697,0.2204227
0.0222524,-0.7597605,0.1605193,0.2415816,0.2463500,0.2638340,0.2542973,0.2415816
0.0460943,-0.7104874,0.1615540,0.2378480,0.2473847,0.2457952,0.2410269,0.2521531
0.0699361,-0.6866455,0.1186307,0.1901563,0.1758512,0.1996930,0.1679039,0.1981036
0.0349681,-0.6500880,0.0846863,0.1466751,0.1228333,0.1498540,0.1212438,0.1371384
0.0047684,-0.5594889,0.0851456,0.1344188,0.1169348,0.1232926,0.1280610,0.1089875
0.0286102,-0.4514058,0.0458749,0.1158110,0.0792535,0.0697168,0.0840219,0.0697168
0.0270208,-0.3623962,-0.0246509,0.0595903,0.0198539,0.0023699,0.0071383,0.0134961
-0.0095367,-0.2686183,-0.0644620,0.0022952,-0.0056521,-0.0151889,-0.0135994,-0.0183678
-0.0095367,-0.1557668,-0.1069228,-0.0195026,-0.0195026,-0.0226816,-0.0242710,-0.0512918
0.0047684,-0.0397364,-0.1361354,-0.0280523,-0.0312312,-0.0630204,-0.0677888,-0.0979884
0.0095367,0.0699361,-0.1314386,-0.0726287,-0.0694497,-0.1091862,-0.1330280,-0.1393859
0.0206629,0.1796087,-0.1542902,-0.1225011,-0.1463429,-0.1336273,-0.1860793,-0.1733637
0.0174840,0.2892812,-0.1707888,-0.1405891,-0.1993990,-0.1469469,-0.2057568,-0.1993990
0.0095367,0.3862381,-0.1369476,-0.1655579,-0.2052943,-0.1846313,-0.2339045,-0.2259572
0.0286102,0.4704793,-0.1158047,-0.2048143,-0.2270667,-0.2397823,-0.2747504,-0.2524980
0.0317891,0.5435944,-0.1206207,-0.2096303,-0.2620824,-0.2589035,-0.2827454,-0.2509562
-0.0047684,0.5992254,-0.1063649,-0.2096796,-0.2700790,-0.2573633,-0.2557739,-0.2446477
-0.0317891,0.6469091,-0.0783253,-0.2356815,-0.2627023,-0.2770074,-0.2420394,-0.2658812
-0.0381470,0.6882350,-0.0661691,-0.2584934,-0.2569040,-0.3014088,-0.2648513,-0.2839247
-0.0476837,0.7247925,-0.0529512,-0.2691174,-0.2516333,-0.3088538,-0.2770646,-0.2818330
-0.0778834,0.7454554,-0.0307226,-0.2691412,-0.2516572,-0.3009303,-0.2468888,-0.2723201
-0.0890096,0.7438660,-0.0280762,-0.2633158,-0.2490107,-0.2871577,-0.2172216,-0.2680842
-0.0683467,0.7406871,-0.0386635,-0.2611876,-0.2278090,-0.2675454,-0.2119144,-0.2627770
-0.0603994,0.7534027,-0.0296625,-0.2362919,-0.2108606,-0.2585443,-0.2172184,-0.2537759
-0.0747045,0.7486343,-0.0201273,-0.2060938,-0.2203989,-0.2664932,-0.2299356,-0.2537775
-0.0826518,0.7168452,-0.0354735,-0.2119033,-0.2246189,-0.2579975,-0.2309767,-0.2452819
-0.0715256,0.6866455,-0.0545232,-0.2261845,-0.2134689,-0.2230056,-0.2150583,-0.2134689
-0.0349681,0.6643931,-0.0592645,-0.2086735,-0.1991367,-0.1800632,-0.1959578,-0.1832422
0.0158946,0.6310145,-0.0682322,-0.1699575,-0.1731364,-0.1413472,-0.1874415,-0.1651891
0.0270208,0.5690257,-0.0862010,-0.1466004,-0.1513688,-0.1068640,-0.1672633,-0.1211691
0.0143051,0.4847844,-0.0983349,-0.1428397,-0.1444292,-0.0856193,-0.1269452,-0.0633669
0.0190735,0.3925959,-0.1056894,-0.1072788,-0.1009210,-0.0643635,-0.0834370,-0.0373427
0.0158946,0.2940496,-0.1130422,-0.0415166,-0.0208537,-0.0335693,-0.0288010,-0.0113169
-0.0031789,0.1907349,-0.1039728,0.0041103,0.0295417,0.0152365,0.0390784,0.0374889
-0.0143051,0.0890096,-0.0726493,0.0274865,0.0402021,0.0719913,0.0815280,0.0751702
-0.0143051,-0.0190735,-0.0429074,0.0588179,0.0810703,0.1033227,0.0953754,0.0969648
0.0015895,-0.1319249,-0.0216341,0.0928068,0.1500273,0.1166487,0.1245960,0.1373116
0.0143051,-0.2304713,0.0006882,0.1342026,0.1707602,0.1500972,0.1723496,0.1818864
0.0254313,-0.3147125,0.0314776,0.1951917,0.1745288,0.2047284,0.2063179,0.1967812
0.0572205,-0.4005432,0.0813484,0.2514203,0.2259890,0.2609571,0.2291679,0.2196312
0.0778834,-0.4959106,0.1301622,0.2748028,0.2795712,0.3097709,0.2668556,0.2700345
0.0492732,-0.5928675,0.1688941,0.2865140,0.2865140,0.3278399,0.3071769,0.3071769
0.0158946,-0.6850561,0.1964951,0.2918625,0.2696101,0.2950414,0.3013992,0.3013992
0.0174840,-0.7597605,0.1970752,0.2797270,0.2654219,0.2701902,0.2701902,0.2813164
0.0333786,-0.8026759,0.2013477,0.2855889,0.2919467,0.2967151,0.2744627,0.3062518
0.0492732,-0.8312861,0.2230946,0.2866729,0.3121042,0.3089253,0.2977991,0.3343566
0.0556310,-0.8519491,0.2135738,0.2453629,0.2866888,0.2739731,0.2978150,0.3041728
0.0238419,-0.8614858,0.1876084,0.2257554,0.2623129,0.2639023,0.2893337,0.2734391
-0.0095367,-0.8535385,0.1785851,0.2453423,0.2739525,0.2803103,0.2930260,0.2675947
-0.0063578,-0.8281072,0.1531378,0.2421474,0.2818839,0.2755260,0.2914206,0.2405580
0.0158946,-0.7994970,0.1186879,0.2220027,0.2506129,0.2474340,0.2680969,0.1981608
0.0365575,-0.7549922,0.1160161,0.2225097,0.2225097,0.2145624,0.2399937,0.1716471
0.0381470,-0.6834666,0.1059024,0.2219327,0.2076276,0.1790174,0.2092171,0.1535861
0.0127157,-0.6087621,0.0655778,0.1959133,0.1625347,0.1482296,0.1577663,0.1371034
0.0127157,-0.5181630,0.0528018,0.1640638,0.1116117,0.1402219,0.1068433,0.1068433
0.0651677,-0.3989538,0.0606871,0.1338021,0.1004235,0.1306232,0.0892973,0.0606871
0.0794729,-0.3019969,0.0298977,0.0902971,0.0744025,0.0759919,0.0728130,0.0442028
0.0286102,-0.2447764,-0.0247288,0.0197760,0.0022920,-0.0056553,0.0007025,0.0197760
0.0095367,-0.1541773,-0.0693003,-0.0375112,-0.0597636,-0.0581741,-0.0820160,-0.0486374
0.0397364,-0.0301997,-0.1223548,-0.0762606,-0.1016919,-0.0842079,-0.1144075,-0.1080497
0.0206629,0.0540415,-0.1727502,-0.1282454,-0.1584450,-0.1266559,-0.1393716,-0.1361926
-0.0301997,0.1287460,-0.1807642,-0.1680485,-0.1807642,-0.1744064,-0.1775853,-0.1569223
-0.0095367,0.2559026,-0.1570002,-0.1760737,-0.1697159,-0.2078629,-0.2158101,-0.1840210
0.0381470,0.3862381,-0.1448854,-0.2005164,-0.1957480,-0.2354844,-0.2418423,-0.2164110
0.0079473,0.4657110,-0.1438888,-0.2297195,-0.2472035,-0.2567403,-0.2551508,-0.2392562
-0.0508626,0.5276998,-0.1195780,-0.2260717,-0.2530924,-0.2626292,-0.2530924,-0.2499135
-0.0524521,0.6024043,-0.0836007,-0.2139362,-0.2345991,-0.2695672,-0.2520831,-0.2743355
-0.0254313,0.6771088,-0.0635084,-0.2288119,-0.2367592,-0.2908007,-0.2621905,-0.3114637
-0.0381470,0.7247925,-0.0481796,-0.2436829,-0.2516301,-0.2897771,-0.2595774,-0.3056717
-0.0651677,0.7343292,-0.0375986,-0.2378702,-0.2585332,-0.2776066,-0.2569437,-0.2601226
-0.0651677,0.7295609,-0.0407743,-0.2330987,-0.2632984,-0.2855508,-0.2632984,-0.2505827
-0.0699361,0.7311503,-0.0413068,-0.2399890,-0.2542941,-0.2813148,-0.2558835,-0.2765465
-0.0905991,0.7279714,-0.0397221,-0.2638356,-0.2463516,-0.2717829,-0.2384043,-0.2749618
-0.0762939,0.7295609,-0.0386588,-0.2707195,-0.2564144,-0.2834352,-0.2405198,-0.2595933
-0.0381470,0.7327398,-0.0428867,-0.2574635,-0.2606424,-0.2828948,-0.2479267,-0.2558740
-0.0333786,0.7200241,-0.0529432,-0.2484465,-0.2389097,-0.2468570,-0.2293730,-0.2420886
-0.0508626,0.6945928,-0.0577005,-0.2341302,-0.2150567,-0.2166462,-0.2023411,-0.2134673
-0.0333786,0.6596247,-0.0645590,-0.2060207,-0.2060207,-0.2139680,-0.1948945,-0.2060207
-0.0015895,0.6151199,-0.0793537,-0.1731316,-0.1794895,-0.1969735,-0.1810789,-0.1906157
-0.0047684,0.5626678,-0.0830285,-0.1211754,-0.1195860,-0.1323016,-0.1307122,-0.1275333
-0.0143051,0.4831950,-0.0835085,-0.0660245,-0.0628455,-0.0660245,-0.0882769,-0.0628455
0.0031789,0.3910065,-0.0982761,-0.0458241,-0.0394662,-0.0378768,-0.0648975,-0.0251611
0.0127157,0.3178914,-0.1040522,-0.0357056,-0.0070953,-0.0070953,-0.0150426,0.0215149
0.0015895,0.2241135,-0.0865094,0.0152159,0.0422366,0.0533628,0.0501839,0.0533628
0.0047684,0.0890096,-0.0678746,0.0799449,0.0735871,0.1133235,0.0926606,0.0624609
0.0206629,-0.0254313,-0.0428915,0.1128753,0.1001596,0.1542012,0.1255910,0.1144648
0.0254313,-0.1033147,-0.0025717,0.1261743,0.1325321,0.1754475,0.1579634,0.1929315
0.0206629,-0.1986821,0.0356372,0.1453098,0.1500781,0.1770989,0.1818673,0.2168353
0.0174840,-0.3290176,0.0659227,0.1533429,0.1565218,0.1803637,0.1899004,0.1994371
0.0127157,-0.4482269,0.0946109,0.1613681,0.1852099,0.2169991,0.2169991,0.2169991
0.0174840,-0.5356471,0.0999689,0.2016942,0.2223571,0.2541463,0.2763987,0.2795776
0.0445048,-0.6087621,0.1169809,0.2457269,0.2489058,0.2663898,0.3140736,0.3220208
0.0731150,-0.6739299,0.1546510,0.2516079,0.2722708,0.2802181,0.3040600,0.3056494
0.0429153,-0.7359187,0.1615699,0.2378639,0.2966738,0.2950843,0.2966738,0.3014421
-0.0127157,-0.7963181,0.1525847,0.2431838,0.3099410,0.2892780,0.3067621,0.3210672
-0.0079473,-0.8360545,0.1738056,0.2691730,0.3104989,0.2961938,0.3089094,0.2961938
0.0238419,-0.8392334,0.1992496,0.2962065,0.3041538,0.3121010,0.3136905,0.2517017
0.0349681,-0.8217494,0.1944733,0.2914302,0.3025564,0.3009669,0.3216298,0.2596410
0.0413259,-0.8138021,0.1706282,0.2659957,0.2946059,0.2771219,0.3057321,0.2818902
0.0365575,-0.8090337,0.1594973,0.2453279,0.2580436,0.2691698,0.2516858,0.2691698
0.0254313,-0.7740657,0.1626492,0.2278169,0.2182802,0.2707322,0.2103329,0.2484798
0.0476837,-0.7216136,0.1552041,0.1965300,0.1997089,0.2473927,0.1838144,0.2108351
0.0651677,-0.6675720,0.1122586,0.1647107,0.1710685,0.2044471,0.1519950,0.1456372
0.0572205,-0.5785624,0.0645129,0.1328595,0.1280912,0.1678276,0.1280912,0.1121966
0.0460943,-0.4784266,0.0443093,0.0872246,0.0904036,0.1285505,0.0983508,0.1126560
0.0238419,-0.4116694,0.0198857,0.0405486,0.0469065,0.0755167,0.0548538,0.0771062
-0.0047684,-0.3369649,-0.0146119,0.0251245,0.0171773,0.0346613,0.0235351,0.0267140
-0.0031789,-0.2241135,-0.0496546,0.0107447,0.0075658,0.0059764,-0.0035604,0.0043869
0.0031789,-0.1144409,-0.0884024,-0.0327714,-0.0216452,-0.0470765,-0.0438976,-0.0248241
-0.0174840,-0.0270208,-0.1266146,-0.0757519,-0.0709836,-0.1011833,-0.0980043,-0.0773414
-0.0158946,0.0715256,-0.1425743,-0.1012484,-0.1107852,-0.1441638,-0.1600583,-0.1457532
0.0190735,0.2034505,-0.1331139,-0.1140404,-0.1362928,-0.1887449,-0.2030500,-0.1998711
0.0270208,0.3369649,-0.1263126,-0.1358493,-0.1596912,-0.1978381,-0.2232695,-0.2200905
0.0000000,0.4275640,-0.1348591,-0.1666482,-0.1904901,-0.1889006,-0.2381738,-0.2318160
-0.0206629,0.4911423,-0.1285505,-0.1778237,-0.2175601,-0.2080234,-0.2461704,-0.2477598
-0.0270208,0.5531311,-0.1089907,-0.1884635,-0.2440945,-0.2409156,-0.2615786,-0.2711153
-0.0079473,0.6246567,-0.0947269,-0.2234729,-0.2727461,-0.2616199,-0.2775145,-0.2759250
0.0063578,0.6898244,-0.0735728,-0.2484131,-0.2754339,-0.2690760,-0.2595393,-0.2579498
-0.0222524,0.7168452,-0.0539970,-0.2510897,-0.2558581,-0.2733421,-0.2495003,-0.2653948
-0.0556310,0.7247925,-0.0487153,-0.2680604,-0.2617025,-0.2791866,-0.2553447,-0.2775971
-0.0651677,0.7311503,-0.0444841,-0.2829027,-0.2765449,-0.2908500,-0.2527030,-0.2670081
-0.0762939,0.7232030,-0.0397142,-0.2733644,-0.2749538,-0.3162797,-0.2606487,-0.2781328
-0.0731150,0.7359187,-0.0323041,-0.2564176,-0.2484703,-0.3120486,-0.2532387,-0.2945646
-0.0572205,0.7677078,-0.0180149,-0.2405389,-0.2087498,-0.2723281,-0.2135181,-0.2548440
-0.0540415,0.7549922,-0.0259527,-0.2262243,-0.2055613,-0.2611923,-0.2023824,-0.2198664
-0.0588099,0.7041295,-0.0550604,-0.2283112,-0.2283112,-0.2696371,-0.2267218,-0.2362585
-0.0429153,0.6786982,-0.0693432,-0.2187522,-0.2171628,-0.2330573,-0.2203417,-0.2298784
-0.0143051,0.6659826,-0.0666761,-0.1747592,-0.1747592,-0.1795276,-0.1827065,-0.1811171
0.0063578,0.6135305,-0.0767008,-0.1371002,-0.1609421,-0.1514053,-0.1657104,-0.1529948
0.0143051,0.5276998,-0.0935952,-0.1237949,-0.1667102,-0.1333316,-0.1714786,-0.1460473
0.0238419,0.4561742,-0.1014916,-0.0999022,-0.1285124,-0.1094389,-0.1444070,-0.0983127
0.0174840,0.3878276,-0.1003885,-0.0638310,-0.0574732,-0.0479364,-0.0749572,-0.0161473
-0.0158946,0.2813339,-0.0918516,-0.0330416,-0.0235049,0.0162315,-0.0155576,0.0384839
-0.0111262,0.1732508,-0.0827710,0.0046492,-0.0096560,0.0332594,0.0284910,0.0507434
0.0381470,0.0921885,-0.0768725,0.0439262,0.0359790,0.0534630,0.0677681,0.0709470
0.0397364,-0.0190735,-0.0561349,0.0567166,0.0932741,0.1075792,0.0932741,0.1218843
0.0143051,-0.1557668,-0.0274420,0.0742833,0.1267354,0.1378616,0.1251459,0.1601140
0.0127157,-0.2622604,-0.0040595,0.1278655,0.1485284,0.1485284,0.1707808,0.1660124
0.0174840,-0.3353755,0.0378466,0.1681821,0.1999712,0.1952028,0.2031501,0.1936134
0.0206629,-0.4212062,0.0813500,0.1878436,0.2577798,0.2466536,0.2291695,0.2514219
0.0238419,-0.5245209,0.0973145,0.2435446,0.2737443,0.2626181,0.2578497,0.2785126
0.0286102,-0.6071726,0.1074378,0.2981726,0.2679729,0.2790991,0.2759202,0.2870464
0.0381470,-0.6723404,0.1451015,0.2976894,0.2738476,0.3119946,0.2897422,0.3056367
0.0317891,-0.7454554,0.1938915,0.2860800,0.2813117,0.3035641,0.2860800,0.3067430
0.0222524,-0.7899602,0.2103424,0.2977626,0.2818680,0.2866364,0.2834574,0.3088888
0.0445048,-0.7947286,0.2140617,0.3110186,0.2871768,0.3205554,0.3141975,0.3459867
0.0635783,-0.8233388,0.2268028,0.2887917,0.2856127,0.3285281,0.3221703,0.3571383
0.0699361,-0.8630753,0.2141158,0.2427260,0.2792835,0.2792835,0.3047148,0.3206094
0.0508626,-0.8630753,0.1886781,0.2458986,0.2872245,0.2649721,0.3078874,0.2872245
-0.0047684,-0.8440018,0.1849381,0.2707688,0.2834845,0.2707688,0.2803055,0.2612321
-0.0206629,-0.8058548,0.1679532,0.2394787,0.2490155,0.2378893,0.2283525,0.2267631
0.0301997,-0.7359187,0.1260678,0.1880566,0.2103090,0.1975934,0.2087196,0.1991828
0.0619888,-0.6691615,0.1043113,0.1742474,0.1710685,0.1663001,0.1901420,0.1615318
0.0492732,-0.6151199,0.0857274,0.1540740,0.1365900,0.1318216,0.1413584,0.1063903
0.0381470,-0.5261103,0.0485770,0.1137447,0.1296393,0.1121553,0.0914923,0.0755978
0.0476837,-0.3989538,0.0220044,0.0839933,0.1078351,0.1094246,0.0569725,0.0617409
0.0524521,-0.2845128,-0.0003227,0.0568978,0.0346454,0.0918659,0.0410032,0.0282876
0.0460943,-0.1939138,-0.0475391,0.0144498,-0.0284656,0.0351127,-0.0014448,-0.0078026
0.0445048,-0.0985463,-0.0836309,-0.0343577,-0.0518417,-0.0152842,-0.0740941,-0.0248210
0.0445048,0.0015895,-0.0948238,-0.0821082,-0.0773398,-0.0487296,-0.1186657,-0.0471401
0.0238419,0.0810623,-0.1208448,-0.1240238,-0.1224343,-0.1144870,-0.1399183,-0.1224343
-0.0158946,0.1668930,-0.1553535,-0.1442273,-0.1633008,-0.1776059,-0.1712481,-0.1919111
-0.0254313,0.2876918,-0.1543776,-0.1591460,-0.2004719,-0.2004719,-0.2147770,-0.1941140
-0.0063578,0.3941854,-0.1343091,-0.1835823,-0.2360344,-0.2217293,-0.2439817,-0.2010663
-0.0031789,0.4688899,-0.1285299,-0.1968765,-0.2350235,-0.2525075,-0.2413813,-0.2493286
-0.0190735,0.5578995,-0.1132298,-0.2054183,-0.2260812,-0.2689966,-0.2276707,-0.2642282
-0.0270208,0.6421407,-0.0767310,-0.2197822,-0.2420346,-0.2642870,-0.2372662,-0.2468030
-0.0206629,0.6755193,-0.0613864,-0.2282794,-0.2584791,-0.2568897,-0.2600686,-0.2680159
-0.0286102,0.6898244,-0.0635179,-0.2367687,-0.2653790,-0.2717368,-0.2780946,-0.3003470
-0.0508626,0.7200241,-0.0503000,-0.2553399,-0.2791818,-0.2887185,-0.2855396,-0.2903080
-0.0619888,0.7390976,-0.0338920,-0.2723106,-0.2818473,-0.2929735,-0.2691317,-0.2723106
-0.0603994,0.7390976,-0.0328318,-0.2680715,-0.2680715,-0.2855555,-0.2362823,-0.2696609
-0.0667572,0.7390976,-0.0386620,-0.2643649,-0.2643649,-0.2723122,-0.2357546,-0.2548281
-0.0890096,0.7311503,-0.0365448,-0.2765528,-0.2622477,-0.2765528,-0.2590688,-0.2431742
-0.0874201,0.7168452,-0.0370646,-0.2723042,-0.2484624,-0.2977355,-0.2484624,-0.2564096
-0.0524521,0.7136663,-0.0460577,-0.2415609,-0.2304347,-0.2924236,-0.2161296,-0.2510977
-0.0349681,0.6993612,-0.0550493,-0.2187634,-0.2060477,-0.2473736,-0.1965110,-0.2108161
-0.0508626,0.6421407,-0.0608444,-0.1959483,-0.1784643,-0.1943588,-0.1832326,-0.1768748
-0.0524521,0.5722046,-0.0735140,-0.1561658,-0.1529868,-0.1529868,-0.1561658,-0.1593447
-0.0095367,0.5276998,-0.0872453,-0.0999610,-0.1110872,-0.1079082,-0.1238028,-0.1174450
0.0158946,0.4545848,-0.0967248,-0.0553989,-0.0760619,-0.0712935,-0.1157983,-0.0792408
0.0047684,0.3369649,-0.1014185,-0.0441980,-0.0696294,-0.0441980,-0.1157236,-0.0712188
0.0111262,0.2543132,-0.0902351,-0.0330146,-0.0361935,0.0003640,-0.0584459,-0.0107622
0.0238419,0.1796087,-0.0806443,0.0147231,0.0322072,0.0449228,0.0306177,0.0830698
-0.0015895,0.0413259,-0.0847991,0.0534836,0.0598415,0.0646098,0.0646098,0.1011674
-0.0127157,-0.0826518,-0.0571696,0.0699870,0.0668081,0.1017761,0.0827026,0.0954183
0.0031789,-0.1637141,-0.0067774,0.0933584,0.1124318,0.1537577,0.1426315,0.1553472
0.0095367,-0.2638499,0.0277297,0.1246866,0.1707808,0.1914438,0.2025700,0.2184645
0.0301997,-0.3639857,0.0542943,0.1719141,0.1989349,0.2227767,0.2275451,0.2148294
0.0476837,-0.4466375,0.0951513,0.2302551,0.2159500,0.2445602,0.2270762,0.2048238
0.0349681,-0.5420049,0.1121648,0.2504476,0.2456792,0.2409108,0.2393214,0.2472687
0.0174840,-0.6405512,0.1095756,0.2399111,0.2875948,0.2653424,0.2939526,0.2955421
0.0079473,-0.7232030,0.1483043,0.2675136,0.3183762,0.3183762,0.3438075,0.3008922
0.0222524,-0.7772446,0.2140427,0.3157679,0.3157679,0.3300730,0.3380203,0.2982839
0.0683467,-0.7931391,0.2294334,0.3168535,0.3025484,0.3136746,0.3057273,0.3073168
0.0874201,-0.7994970,0.2109003,0.2967310,0.3142150,0.3126256,0.3046783,0.3094467
0.0715256,-0.8201599,0.2246841,0.2898518,0.3359461,0.3216410,0.3216410,0.3152831
0.0635783,-0.8424123,0.2442996,0.2824465,0.3221830,0.3078779,0.3190041,0.3126462
0.0715256,-0.8376439,0.2225765,0.2797969,0.2813864,0.2718496,0.2925126,0.2956915
0.0667572,-0.8074443,0.1806990,0.2697086,0.2426879,0.2442773,0.2554035,0.2760665
0.0397364,-0.7740657,0.1467594,0.2294111,0.2230533,0.2357690,0.2310006,0.2564319
0.0127157,-0.7454554,0.1350753,0.1938852,0.2177270,0.2240849,0.2256743,0.2352111
0.0238419,-0.6977717,0.1218017,0.1806116,0.1933273,0.1901484,0.2124008,0.2060429
0.0301997,-0.6182988,0.0708882,0.1614873,0.1392349,0.1360559,0.1694345,0.1630767
0.0047684,-0.5276998,0.0236654,0.1269801,0.0967805,0.0920121,0.1047277,0.0983699
0.0015895,-0.4355113,0.0177749,0.0893005,0.0670481,0.0670481,0.0543324,0.0304906
0.0127157,-0.3258387,0.0028706,0.0505543,0.0378386,0.0362492,0.0171757,0.0076389
0.0000000,-0.1986821,-0.0401338,0.0266234,0.0091394,-0.0003974,-0.0290076,0.0027816
0.0031789,-0.0794729,-0.0778294,0.0127697,-0.0237878,-0.0380929,-0.0730610,-0.0396824
0.0095367,0.0063578,-0.1006667,-0.0180149,-0.0672881,-0.0768248,-0.0990772,-0.0943089
0.0000000,0.0937780,-0.1107947,-0.0662899,-0.1107947,-0.0996685,-0.1235104,-0.1330471
-0.0047684,0.1986821,-0.1331186,-0.1156346,-0.1506027,-0.1140451,-0.1712656,-0.1744445
-0.0143051,0.2829234,-0.1723846,-0.1644373,-0.1946370,-0.1692057,-0.2121210,-0.2041737
-0.0492732,0.3417333,-0.1676671,-0.2042246,-0.2312454,-0.2344243,-0.2201192,-0.1883300
-0.0556310,0.4323324,-0.1226950,-0.2260097,-0.2434937,-0.2593883,-0.2275991,-0.1878627
-0.0286102,0.5531311,-0.1068719,-0.2356180,-0.2340285,-0.2594598,-0.2403863,-0.2372074
-0.0365575,0.6278356,-0.1069244,-0.2467966,-0.2261337,-0.2626912,-0.2372599,-0.2611017
-0.0747045,0.6564458,-0.0799354,-0.2515968,-0.2420600,-0.2643124,-0.2341127,-0.2611335
-0.0842412,0.6993612,-0.0449991,-0.2405024,-0.2516286,-0.2675231,-0.2373234,-0.2691126
-0.0731150,0.7327398,-0.0407791,-0.2410507,-0.2426402,-0.2855555,-0.2394613,-0.2680715
-0.0635783,0.7311503,-0.0529607,-0.2548218,-0.2484639,-0.3009160,-0.2452850,-0.2738953
-0.0635783,0.7327398,-0.0503127,-0.2505843,-0.2521737,-0.2871418,-0.2362792,-0.2855523
-0.0794729,0.7422765,-0.0354894,-0.2437083,-0.2309926,-0.2627818,-0.2182770,-0.2818553
-0.0890096,0.7295609,-0.0344245,-0.2521801,-0.2362855,-0.2569485,-0.2346961,-0.2760220
-0.0651677,0.7152557,-0.0439437,-0.2394470,-0.2537521,-0.2505732,-0.2585204,-0.2553415
-0.0540415,0.7025401,-0.0513490,-0.2198315,-0.2404944,-0.2389050,-0.2389050,-0.2118842
-0.0603994,0.6802877,-0.0561047,-0.2245871,-0.2166398,-0.2245871,-0.2055136,-0.1753139
-0.0397364,0.6500880,-0.0672038,-0.2134339,-0.2038972,-0.1832342,-0.1880026,-0.1562134
-0.0206629,0.5976359,-0.0862360,-0.1577616,-0.1625299,-0.1275619,-0.1609405,-0.1307408
-0.0206629,0.5165736,-0.0957187,-0.1147922,-0.1052554,-0.1004871,-0.1116133,-0.0941292
-0.0158946,0.4291534,-0.0998974,-0.1078447,-0.0903606,-0.0919501,-0.0808239,-0.0744661
-0.0127157,0.3385544,-0.1104323,-0.0675170,-0.0770537,-0.0691064,-0.0834115,-0.0579802
-0.0111262,0.2447764,-0.1018922,0.0030120,-0.0033458,-0.0112931,-0.0526190,-0.0033458
0.0063578,0.1462301,-0.0716209,0.0348727,0.0523567,0.0507673,0.0173887,0.0444094
0.0143051,0.0413259,-0.0519451,0.0529591,0.0545486,0.0815694,0.0497802,0.0529591
0.0031789,-0.0572205,-0.0280412,0.1022943,0.0832208,0.1086521,0.0657368,0.0911681
0.0111262,-0.1446406,0.0207631,0.1431513,0.1352040,0.1574564,0.1256673,0.1797088
0.0635783,-0.2320608,0.0738207,0.1453463,0.1596514,0.2057457,0.1930300,0.2327665
0.0937780,-0.3401438,0.0982745,0.1507266,0.1793369,0.2349679,0.2206628,0.2270206
0.0540415,-0.4625320,0.0951640,0.1952998,0.2223206,0.2541097,0.2302678,0.2445730
0.0015895,-0.5896886,0.0962909,0.2345737,0.2615945,0.2663628,0.2472893,0.2711312
0.0000000,-0.6977717,0.1233832,0.2441820,0.2870973,0.2727922,0.2918657,0.2616660
0.0063578,-0.7692973,0.1515134,0.2468808,0.2977435,0.2739016,0.3247643,0.2691332
0.0015895,-0.7994970,0.1870298,0.2649132,0.2982918,0.2808078,0.3062391,0.2982918
0.0143051,-0.8153915,0.2183040,0.2961874,0.3089031,0.2961874,0.2993663,0.3009558
0.0270208,-0.8281072,0.2167273,0.3152736,0.3375260,0.3136841,0.3391155,0.3057369
0.0524521,-0.8138021,0.1971229,0.3067954,0.3481213,0.3290478,0.3687843,0.3274584
0.0778834,-0.8138021,0.1966015,0.2983268,0.3158108,0.3158108,0.3444211,0.3285265
0.0603994,-0.8376439,0.2199237,0.2914492,0.2676074,0.2787336,0.2946281,0.2946281
0.0397364,-0.8217494,0.2167273,0.2485164,0.2294429,0.2469269,0.2469269,0.2501059
0.0445048,-0.7756551,0.1727231,0.2061017,0.2029228,0.2315331,0.2267647,0.2156385
0.0413259,-0.7422765,0.1419703,0.2055486,0.1753489,0.2150853,0.2182643,0.1960119
0.0365575,-0.6866455,0.1313353,0.1774295,0.1408720,0.1663033,0.1663033,0.1694822
0.0301997,-0.5960464,0.0745821,0.1095502,0.1190869,0.1174974,0.1047818,0.1206764
0.0222524,-0.5070368,0.0061735,0.0697517,0.1031303,0.1063093,0.0935936,0.0856463
0.0143051,-0.4291534,-0.0124248,0.0479746,0.0591008,0.0734059,0.0781743,0.0781743
-0.0015895,-0.3449122,-0.0305001,0.0171836,0.0219520,-0.0003004,0.0140047,0.0283098
0.0063578,-0.2320608,-0.0708389,0.0022761,0.0165812,-0.0231552,-0.0422287,-0.0597127
0.0127157,-0.0969569,-0.0862916,0.0043074,-0.0004609,-0.0004609,-0.0592709,-0.0942389
0.0127157,0.0365575,-0.0863806,-0.0212129,-0.0514126,-0.0355180,-0.0816123,-0.0895596
0.0317891,0.1398722,-0.1081657,-0.0779661,-0.1129341,-0.1145236,-0.1335971,-0.1320076
0.0365575,0.2082189,-0.1484760,-0.1405287,-0.1707284,-0.1643705,-0.1961597,-0.2072859
0.0015895,0.2876918,-0.1586072,-0.1935752,-0.2126487,-0.1888069,-0.2444379,-0.2301327
-0.0190735,0.3878276,-0.1470248,-0.2264977,-0.2344449,-0.2217293,-0.2646446,-0.2217293
-0.0079473,0.4752477,-0.1386023,-0.2339697,-0.2419170,-0.2466853,-0.2609905,-0.2371486
-0.0127157,0.5467733,-0.1132202,-0.2371979,-0.2371979,-0.2530924,-0.2499135,-0.2530924
-0.0333786,0.6135305,-0.0873105,-0.2526140,-0.2351300,-0.2653297,-0.2414878,-0.2605613
-0.0429153,0.6659826,-0.0809908,-0.2669573,-0.2510627,-0.2923886,-0.2447049,-0.2828519
-0.0635783,0.6961823,-0.0635338,-0.2606265,-0.2717527,-0.3146680,-0.2495003,-0.2924156
-0.0858307,0.7073085,-0.0439453,-0.2537537,-0.2664693,-0.3236898,-0.2617009,-0.2839533
-0.0715256,0.7200241,-0.0450087,-0.2691221,-0.2564065,-0.3199848,-0.2707116,-0.2881956
-0.0667572,0.7454554,-0.0376066,-0.2601306,-0.2490044,-0.2998670,-0.2521833,-0.2776146
-0.0905991,0.7534027,-0.0196060,-0.2294143,-0.2325932,-0.2675613,-0.2262354,-0.2421300
-0.0874201,0.7406871,-0.0195964,-0.2294048,-0.2278153,-0.2468888,-0.2294048,-0.2214575
-0.0603994,0.7375081,-0.0291220,-0.2357515,-0.2309831,-0.2341620,-0.2325726,-0.2119096
-0.0445048,0.7263819,-0.0370566,-0.2071285,-0.2071285,-0.2039496,-0.2087180,-0.2087180
-0.0365575,0.6802877,-0.0624545,-0.1991479,-0.1927900,-0.1880217,-0.1864322,-0.2150424
-0.0349681,0.6246567,-0.0889079,-0.2192434,-0.2033488,-0.2065277,-0.1715597,-0.1954015
-0.0301997,0.5737940,-0.0925811,-0.1911275,-0.1847696,-0.1895380,-0.1466227,-0.1418543
-0.0158946,0.5086263,-0.0946522,-0.1343886,-0.1407464,-0.1407464,-0.1216729,-0.1057784
-0.0063578,0.4180272,-0.1120726,-0.1041253,-0.1152515,-0.1120726,-0.1073043,-0.0914097
-0.0127157,0.3115336,-0.1220703,-0.0727971,-0.0855128,-0.0775655,-0.0871023,-0.0521342
-0.0111262,0.2129873,-0.1167059,-0.0276963,-0.0276963,-0.0197490,-0.0292857,0.0199874
0.0143051,0.1239777,-0.0986242,0.0237640,0.0380691,0.0317113,0.0380691,0.0635004
0.0286102,0.0254313,-0.0720628,0.0757567,0.0773462,0.0678094,0.0662200,0.0566832
0.0158946,-0.0683467,-0.0396856,0.1256180,0.1113129,0.1160812,0.0970078,0.0922394
0.0143051,-0.1557668,-0.0020107,0.1632929,0.1569351,0.1775980,0.1632929,0.1807769
0.0143051,-0.2670288,0.0351508,0.1718442,0.1734336,0.2020439,0.1909177,0.2131701
0.0158946,-0.3735224,0.0542959,0.1687368,0.1750946,0.2116521,0.1925786,0.2068837
0.0349681,-0.4482269,0.0681273,0.1857471,0.2143574,0.2652200,0.2477360,0.2525043
0.0429153,-0.5388260,0.0909726,0.2101819,0.2451499,0.2864758,0.2960126,0.3039598
0.0429153,-0.6453196,0.1313098,0.2187300,0.2457507,0.2600559,0.2982028,0.3061501
0.0524521,-0.7136663,0.1732143,0.2399715,0.2685817,0.2797079,0.3162654,0.2924236
0.0365575,-0.7597605,0.1764186,0.2701966,0.2940385,0.3131119,0.3433116,0.2924490
0.0143051,-0.8026759,0.1743205,0.2792247,0.2887615,0.3046560,0.3316768,0.3157822
0.0143051,-0.8344650,0.1928854,0.2771266,0.2803055,0.2914317,0.3041474,0.3200420
0.0095367,-0.8551280,0.1934274,0.2903843,0.3046894,0.2935632,0.3015105,0.2919737
0.0000000,-0.8535385,0.1849461,0.2930291,0.3264078,0.2930291,0.3073343,0.2787240
0.0047684,-0.8233388,0.1939344,0.2734073,0.3099648,0.2893019,0.3051964,0.2670495
0.0158946,-0.7915497,0.1764329,0.2543163,0.2956422,0.2765687,0.2845160,0.2304745
0.0317891,-0.7645289,0.1366838,0.2495352,0.2749666,0.2479458,0.2447669,0.2018515
0.0381470,-0.7247925,0.1292419,0.2357356,0.2103043,0.2071253,0.2087148,0.1689784
0.0143051,-0.6659826,0.1270755,0.1970116,0.1572752,0.1747592,0.1731698,0.1207177
0.0127157,-0.5817413,0.0851631,0.1550992,0.1455625,0.1423836,0.1121839,0.1010577
0.0429153,-0.4895528,0.0379578,0.1078939,0.0983572,0.0999467,0.0570313,0.1047150
0.0301997,-0.4148483,0.0013463,0.0410827,0.0235987,0.0442616,0.0299565,0.0665140
-0.0095367,-0.3290176,-0.0411097,0.0002162,-0.0061417,-0.0029627,0.0033951,0.0113424
0.0015895,-0.2082189,-0.0708564,-0.0056887,-0.0184043,-0.0231727,-0.0279411,-0.0136360
0.0238419,-0.0985463,-0.0958236,-0.0401926,-0.0672134,-0.0544977,-0.0688028,-0.0465504
0.0047684,-0.0111262,-0.1377439,-0.0852919,-0.1027759,-0.1059548,-0.1202599,-0.0948286
-0.0381470,0.0842412,-0.1584848,-0.1044432,-0.1235167,-0.1457691,-0.1616637,-0.1330535
-0.0413259,0.2050400,-0.1405525,-0.1198896,-0.1596260,-0.1707522,-0.1802890,-0.1723417
0.0127157,0.3306071,-0.1273727,-0.1496251,-0.1734670,-0.1973089,-0.2036667,-0.2290980
0.0524521,0.4227956,-0.1316595,-0.1793432,-0.1777538,-0.2222586,-0.2381531,-0.2699423
0.0381470,0.5038579,-0.1205921,-0.1952966,-0.2175490,-0.2509276,-0.2556960,-0.2731800
0.0047684,0.5896886,-0.0968186,-0.1969544,-0.2478170,-0.2605327,-0.2573538,-0.2637116
-0.0238419,0.6421407,-0.0841475,-0.2017673,-0.2367353,-0.2542194,-0.2653456,-0.2621667
-0.0381470,0.6707509,-0.0762240,-0.2272224,-0.2367592,-0.2733167,-0.2764956,-0.2685483
-0.0397364,0.7088979,-0.0550572,-0.2616866,-0.2648656,-0.2918863,-0.2712234,-0.2759918
-0.0413259,0.7343292,-0.0439485,-0.2807776,-0.2839565,-0.2807776,-0.2632936,-0.2760092
-0.0460943,0.7375081,-0.0434224,-0.2738937,-0.2802515,-0.2770726,-0.2516413,-0.2643569
-0.0540415,0.7343292,-0.0413036,-0.2781328,-0.2749538,-0.2987957,-0.2447542,-0.2558804
-0.0635783,0.7343292,-0.0413068,-0.2908516,-0.2685992,-0.3131040,-0.2511152,-0.2590624
-0.0667572,0.7279714,-0.0444825,-0.2765433,-0.2622382,-0.3035641,-0.2511120,-0.2606487
-0.0667572,0.7152557,-0.0450039,-0.2436860,-0.2405071,-0.2722963,-0.2182547,-0.2484544
-0.0635783,0.6977717,-0.0513490,-0.2277788,-0.2166526,-0.2357260,-0.1880423,-0.2230104
-0.0460943,0.6739299,-0.0698709,-0.2240483,-0.2081537,-0.2145116,-0.1906697,-0.1970275
-0.0238419,0.6484985,-0.0783237,-0.1848173,-0.1784595,-0.1911751,-0.1832279,-0.1625649
-0.0143051,0.5992254,-0.0793473,-0.1286205,-0.1413361,-0.1635885,-0.1524623,-0.1159048
-0.0063578,0.5133947,-0.0930627,-0.1057784,-0.1359781,-0.1423359,-0.1264413,-0.0771681
0.0143051,0.4307429,-0.1041269,-0.0786956,-0.1168426,-0.1041269,-0.0993586,-0.0516748
0.0413259,0.3655752,-0.1056639,-0.0214227,-0.0484435,-0.0309594,-0.0563908,-0.0341384
0.0556310,0.2717972,-0.0997686,0.0083145,0.0019566,0.0305669,-0.0107590,-0.0028117
0.0492732,0.1478195,-0.0737270,0.0152826,0.0200510,0.0550191,0.0391245,0.0581980
0.0397364,0.0317891,-0.0397444,0.0492652,0.0524441,0.0905911,0.0905911,0.1223803
0.0286102,-0.0842412,-0.0243060,0.0885455,0.0980822,0.1394081,0.1409976,0.1553027
0.0095367,-0.2082189,-0.0099246,0.0981585,0.1315371,0.1553790,0.1744525,0.1744525
0.0127157,-0.3004074,0.0182184,0.1294804,0.1723957,0.1755746,0.1978270,0.2137216
0.0270208,-0.3814697,0.0405296,0.1915280,0.2201382,0.2249066,0.2217277,0.2328539
0.0127157,-0.4863739,0.0596682,0.2345085,0.2535820,0.2504031,0.2440453,0.2233823
-0.0047684,-0.5737940,0.1026360,0.2552239,0.2758869,0.2647607,0.2838341,0.2552239
0.0143051,-0.6230672,0.1524782,0.2764559,0.3066556,0.3018872,0.3273185,0.3002977
0.0556310,-0.6739299,0.1700099,0.2860403,0.3114716,0.3337240,0.3273662,0.3035243
0.0651677,-0.7438660,0.1679405,0.2950970,0.2919181,0.3332440,0.3141705,0.3125811
0.0349681,-0.7947286,0.1933956,0.3205522,0.3078365,0.3284995,0.3300889,0.3428046
0.0254313,-0.8201599,0.2273178,0.3179169,0.3290431,0.3226852,0.3210958,0.3242747
0.0508626,-0.8535385,0.2188714,0.2633762,0.2856286,0.2951654,0.2935759,0.2888076
0.0460943,-0.8789698,0.1923958,0.2289534,0.2416690,0.2798160,0.3052473,0.2988895
-0.0047684,-0.8598963,0.1838891,0.2522357,0.2633619,0.2856143,0.3205824,0.3110456
-0.0301997,-0.8296967,0.1568397,0.2776384,0.2649228,0.2522071,0.2792279,0.2712806
-0.0031789,-0.8026759,0.1245117,0.2564367,0.2151108,0.2055740,0.2294159,0.2230581
0.0174840,-0.7470449,0.1276604,0.2198490,0.2023649,0.2166700,0.2246173,0.2134911
0.0111262,-0.6723404,0.1143630,0.1970148,0.2081410,0.2256250,0.2113199,0.1922464
0.0254313,-0.5880992,0.0719261,0.1720619,0.1641146,0.1513990,0.1355044,0.1148415
0.0460943,-0.4831950,0.0427230,0.1221959,0.0967646,0.0586176,0.0586176,0.0490808
0.0445048,-0.3623962,0.0219790,0.0680733,0.0585365,0.0394630,0.0442314,0.0410525
0.0365575,-0.2543132,-0.0003481,0.0393883,0.0362094,0.0521040,0.0298516,0.0457462
0.0270208,-0.1748403,-0.0268952,0.0112518,-0.0221268,0.0080729,-0.0221268,0.0128412
0.0079473,-0.1033147,-0.0794013,-0.0380754,-0.1016537,-0.0650962,-0.0778119,-0.0460227
0.0015895,-0.0031789,-0.1393398,-0.0757615,-0.1329819,-0.0996033,-0.1282136,-0.0948350
0.0063578,0.1223882,-0.1542568,-0.0986258,-0.1351833,-0.1272360,-0.1637936,-0.1399517
-0.0127157,0.2272924,-0.1447964,-0.1336702,-0.1749961,-0.1877117,-0.1877117,-0.1829433
-0.0349681,0.3163020,-0.1512210,-0.1750628,-0.2100309,-0.2354622,-0.2004941,-0.2036730
-0.0174840,0.4243851,-0.1454592,-0.1947323,-0.2042691,-0.2312899,-0.1995007,-0.2090375
0.0015895,0.5149841,-0.1121346,-0.2043231,-0.2043231,-0.2281650,-0.2281650,-0.2377017
-0.0190735,0.5642573,-0.1010482,-0.2313836,-0.2393309,-0.2568150,-0.2758884,-0.2901936
-0.0476837,0.6198883,-0.0989755,-0.2452056,-0.2595107,-0.2738158,-0.2690474,-0.3103733
-0.0540415,0.6818771,-0.0667000,-0.2335930,-0.2494876,-0.2685610,-0.2351824,-0.2796872
-0.0476837,0.7200241,-0.0402323,-0.2405039,-0.2516301,-0.2643458,-0.2325567,-0.2579880
-0.0508626,0.7422765,-0.0354799,-0.2611828,-0.2611828,-0.2723090,-0.2484671,-0.2691301
-0.0667572,0.7518133,-0.0381406,-0.2686119,-0.2558963,-0.2717908,-0.2511279,-0.2702014
-0.0794729,0.7406871,-0.0429058,-0.2701982,-0.2511247,-0.2606614,-0.2447669,-0.2558931
-0.0747045,0.7263819,-0.0428947,-0.2654187,-0.2654187,-0.2654187,-0.2383979,-0.2542925
-0.0603994,0.7295609,-0.0391833,-0.2458127,-0.2617073,-0.2776019,-0.2299182,-0.2553495
-0.0524521,0.7327398,-0.0444810,-0.2304475,-0.2336264,-0.2606471,-0.2161423,-0.2447526
-0.0635783,0.7104874,-0.0508277,-0.2240785,-0.2113628,-0.2145418,-0.1875210,-0.2256680
-0.0635783,0.6675720,-0.0619253,-0.2002080,-0.1747767,-0.1700083,-0.1700083,-0.1954397
-0.0333786,0.6230672,-0.0825485,-0.1620213,-0.1397689,-0.1588424,-0.1747370,-0.1715581
-0.0095367,0.5801519,-0.0952276,-0.1381429,-0.1508586,-0.1603953,-0.1683426,-0.1540375
-0.0143051,0.5308787,-0.0946665,-0.1089716,-0.1502975,-0.1105611,-0.1296345,-0.1169189
-0.0174840,0.4609426,-0.0925016,-0.0591230,-0.0877333,-0.0257444,-0.0877333,-0.0702492
0.0127157,0.3655752,-0.0834211,-0.0309690,-0.0325584,0.0167147,-0.0627581,-0.0341479
0.0286102,0.2495448,-0.0690333,-0.0134023,-0.0118128,0.0358709,-0.0229390,0.0104396
-0.0095367,0.1207987,-0.0737286,0.0089232,0.0152810,0.0581964,0.0264072,0.0407124
-0.0254313,0.0095367,-0.0996208,-0.0090218,0.0052834,0.0275358,0.0179990,0.0227674
-0.0031789,-0.0429153,-0.1006381,-0.0132179,-0.0068601,0.0122134,0.0090345,0.0344658
-0.0158946,-0.0747045,-0.0444603,0.0779279,0.0858752,0.0938225,0.0779279,0.1144854
-0.0222524,-0.1716614,0.0154718,0.1458073,0.1871332,0.1680597,0.1442178,0.1585229
0.0270208,-0.2924601,0.0219266,0.1379569,0.2063036,0.1824617,0.1617988,0.1522621
0.0540415,-0.3639857,0.0272814,0.1798693,0.2291425,0.2164268,0.1957639,0.1941744
0.0365575,-0.4402796,0.0713015,0.2493207,0.2699836,0.2588574,0.2493207,0.2652152
0.0254313,-0.5722046,0.1206589,0.2605311,0.2621206,0.2605311,0.2700679,0.2843730
0.0254313,-0.6739299,0.1514562,0.2786128,0.2547709,0.2754339,0.2770233,0.2786128
0.0301997,-0.7088979,0.1838001,0.3204934,0.2855253,0.3141356,0.2950621,0.3093672
0.0429153,-0.7470449,0.2113803,0.3194634,0.3083372,0.3417158,0.3178740,0.3417158
0.0349681,-0.7979075,0.2024047,0.2914143,0.2977721,0.3406874,0.3184350,0.3470453
0.0254313,-0.8138021,0.1695633,0.2983093,0.2792358,0.3030777,0.3014882,0.3428141
0.0429153,-0.8201599,0.1531490,0.2977896,0.2771266,0.2723583,0.2866634,0.3073263
0.0365575,-0.8249283,0.1663955,0.2538157,0.2824259,0.2887837,0.2919626,0.2681208
-0.0031789,-0.8058548,0.1843834,0.2336566,0.2606773,0.2861087,0.2940559,0.2654457
-0.0031789,-0.7756551,0.1711178,0.2490012,0.2346961,0.2505906,0.2744325,0.2490012
0.0190735,-0.7422765,0.1350753,0.2368005,0.2399794,0.2352111,0.2574635,0.2209059
0.0047684,-0.7152557,0.1022037,0.1864449,0.2277708,0.2071079,0.2214130,0.1975711
-0.0079473,-0.6771088,0.0825707,0.1413806,0.1540963,0.1493279,0.1382017,0.1318439
0.0095367,-0.5722046,0.0703208,0.1180045,0.0782681,0.1195939,0.0766786,0.0655524
0.0397364,-0.4275640,0.0580486,0.0898377,0.0516907,0.0993745,0.0707642,0.0580486
0.0460943,-0.3337860,0.0309674,0.0611671,0.0389147,0.0484514,0.0532198,0.0436831
0.0222524,-0.2686183,-0.0067012,0.0489299,0.0044250,0.0266774,0.0076040,0.0091934
0.0095367,-0.1748403,-0.0512727,0.0138950,-0.0290203,0.0170739,-0.0337887,-0.0099468
0.0190735,-0.0747045,-0.0958411,-0.0513363,-0.0608730,-0.0513363,-0.0576941,-0.0529257
0.0190735,0.0158946,-0.1261012,-0.1038488,-0.1102066,-0.1292801,-0.1006699,-0.1308695
0.0190735,0.1351039,-0.1293596,-0.1420752,-0.1468436,-0.1706855,-0.1722749,-0.1818117
0.0174840,0.2670288,-0.1442830,-0.1617670,-0.1697143,-0.1840194,-0.2030929,-0.1760721
0.0031789,0.3687541,-0.1687272,-0.1782640,-0.1957480,-0.1909796,-0.1941586,-0.1766745
-0.0174840,0.4498164,-0.1428270,-0.2111737,-0.2016370,-0.2079948,-0.2159421,-0.2270683
-0.0254313,0.5324682,-0.0930818,-0.2218278,-0.2011649,-0.2170595,-0.2409013,-0.2520275
-0.0111262,0.6008148,-0.0888840,-0.2112722,-0.2303457,-0.2271668,-0.2382930,-0.2351141
0.0000000,0.6453196,-0.0979169,-0.2361997,-0.2743467,-0.2759361,-0.2600416,-0.2568626
-0.0190735,0.6882350,-0.0756995,-0.2680238,-0.2855078,-0.3125286,-0.2902762,-0.2886868
-0.0381470,0.7263819,-0.0471210,-0.2775923,-0.2712345,-0.2950764,-0.2855396,-0.2807713
-0.0460943,0.7390976,-0.0391849,-0.2728351,-0.2648878,-0.2744246,-0.2553511,-0.2648878
-0.0667572,0.7327398,-0.0397174,-0.2685992,-0.2654203,-0.2924411,-0.2368100,-0.2701886
-0.0762939,0.7295609,-0.0402482,-0.2707195,-0.2659512,-0.3152243,-0.2468777,-0.2738984
-0.0603994,0.7359187,-0.0381279,-0.2622414,-0.2542941,-0.3019778,-0.2463468,-0.2622414
-0.0588099,0.7375081,-0.0344197,-0.2442280,-0.2235651,-0.2648910,-0.2187967,-0.2505859
-0.0683467,0.7263819,-0.0370646,-0.2373362,-0.2039576,-0.2405151,-0.2103154,-0.2484624
-0.0492732,0.7184347,-0.0471195,-0.2219597,-0.1965284,-0.2219597,-0.2108335,-0.2203703
-0.0111262,0.7025401,-0.0592820,-0.1896175,-0.1816702,-0.1912069,-0.1848491,-0.1594178
-0.0095367,0.6310145,-0.0772476,-0.1694361,-0.1678467,-0.1678467,-0.1757940,-0.1344681
-0.0270208,0.5451838,-0.0840839,-0.1556094,-0.1476622,-0.1508411,-0.1826302,-0.1476622
-0.0143051,0.4927317,-0.0866938,-0.1248407,-0.1137145,-0.1105356,-0.1486826,-0.1073567
0.0270208,0.4355113,-0.1020066,-0.0940593,-0.0908804,-0.0622702,-0.0924699,-0.0400178
0.0492732,0.3433228,-0.1072359,-0.0611416,-0.0643206,-0.0277630,-0.0484260,-0.0086896
0.0286102,0.2352397,-0.0976340,-0.0102139,0.0025018,0.0215753,0.0183964,0.0295226
-0.0047684,0.1049042,-0.1129230,0.0126441,0.0507911,0.0603278,0.0762224,0.0730435
-0.0047684,-0.0190735,-0.1064825,0.0190846,0.0588210,0.0540527,0.0874313,0.0683578
0.0190735,-0.0985463,-0.0401942,0.0821940,0.1028570,0.0917308,0.1187515,0.0694784
0.0365575,-0.1589457,0.0266091,0.1601235,0.1950916,0.1903232,0.1966810,0.1474078
0.0158946,-0.2717972,0.0441615,0.1888021,0.2539698,0.2301280,0.2301280,0.2094650
-0.0079473,-0.3910065,0.0553592,0.2015893,0.2588097,0.2270206,0.2079471,0.2206628
0.0365575,-0.4434586,0.0914367,0.2360773,0.2758137,0.2742243,0.2313089,0.2678665
0.0826518,-0.5118052,0.1402410,0.2578608,0.2960078,0.3134918,0.2896500,0.3071340
0.0619888,-0.6357829,0.1662779,0.2521086,0.2648242,0.2918450,0.2934345,0.2807188
0.0429153,-0.7232030,0.1652702,0.2574587,0.2336168,0.2717638,0.2749427,0.2717638
0.0460943,-0.7613500,0.1626476,0.2691412,0.2675517,0.2882147,0.2961620,0.2882147
0.0413259,-0.7915497,0.1568381,0.2553844,0.3062471,0.3126049,0.3316784,0.3014787
0.0381470,-0.8074443,0.1552582,0.2442678,0.3014882,0.3189723,0.3475825,0.3300985
0.0270208,-0.8360545,0.1748768,0.2448130,0.2845494,0.2940861,0.3226964,0.3147491
0.0174840,-0.8455912,0.2019008,0.2448161,0.2797842,0.2781947,0.2845526,0.2591213
0.0270208,-0.7947286,0.2039893,0.2612098,0.2786938,0.2771044,0.2659782,0.2405469
0.0365575,-0.7454554,0.1795880,0.2670081,0.2701871,0.2527030,0.2463452,0.2272717
0.0508626,-0.7152557,0.1583799,0.2394422,0.2346738,0.2140109,0.2156003,0.1854006
0.0715256,-0.6643931,0.1392794,0.2028577,0.1758369,0.1821947,0.1790158,0.1535845
0.0651677,-0.5944570,0.1085011,0.1736689,0.1307535,0.1482375,0.1275746,0.1339324
0.0540415,-0.4959106,0.0697549,0.1492278,0.1237965,0.1396910,0.0872389,0.1015441
0.0556310,-0.4116694,0.0188367,0.0967201,0.0967201,0.1253303,0.0681098,0.0538047
0.0317891,-0.3703435,-0.0299422,0.0288677,0.0240993,0.0590674,0.0336361,0.0097942
0.0079473,-0.2733866,-0.0384919,0.0139602,-0.0210079,-0.0003449,-0.0003449,-0.0019344
0.0127157,-0.1255671,-0.0433572,0.0138632,-0.0147470,-0.0195154,-0.0226943,-0.0099786
0.0047684,-0.0333786,-0.0810385,-0.0381231,-0.0317653,-0.0508388,-0.0746806,-0.0715017
-0.0270208,0.0206629,-0.1330074,-0.1012182,-0.1059866,-0.1139339,-0.1600281,-0.1568492
-0.0270208,0.1303355,-0.1553329,-0.1299016,-0.1696380,-0.1680485,-0.2061955,-0.1871220
-0.0047684,0.2702077,-0.1427031,-0.1411136,-0.1919762,-0.1887973,-0.2110497,-0.1951551
-0.0174840,0.3782908,-0.1268848,-0.1475477,-0.2063576,-0.1888736,-0.2158944,-0.2174838
-0.0317891,0.4657110,-0.1242987,-0.1735719,-0.2260240,-0.2148978,-0.2387396,-0.2355607
-0.0095367,0.5515416,-0.1158714,-0.2271334,-0.2446175,-0.2605120,-0.2716382,-0.2573331
-0.0127157,0.6071726,-0.1047834,-0.2732658,-0.2621396,-0.2764448,-0.2923393,-0.2859815
-0.0492732,0.6357829,-0.0894499,-0.2754164,-0.2690585,-0.2658796,-0.2817742,-0.2897215
-0.0556310,0.6691615,-0.0730499,-0.2653742,-0.2701426,-0.2749109,-0.2669636,-0.2780898
-0.0635783,0.7041295,-0.0598303,-0.2775860,-0.2696387,-0.2966595,-0.2664598,-0.2791754
-0.0921885,0.7232030,-0.0471369,-0.2839661,-0.2648926,-0.3046290,-0.2585347,-0.2887344
-0.0810623,0.7327398,-0.0381327,-0.2765512,-0.2654250,-0.3162877,-0.2479410,-0.2892669
-0.0651677,0.7422765,-0.0354846,-0.2707243,-0.2564192,-0.3088713,-0.2468824,-0.2691348
-0.0747045,0.7470449,-0.0307226,-0.2627834,-0.2389415,-0.2723201,-0.2532466,-0.2611939
-0.0603994,0.7438660,-0.0312455,-0.2474117,-0.2331066,-0.2633063,-0.2537696,-0.2776114
-0.0460943,0.7359187,-0.0381231,-0.2225002,-0.2304475,-0.2590577,-0.2368053,-0.2654155
-0.0572205,0.7216136,-0.0439453,-0.1981227,-0.2060699,-0.2108383,-0.2076594,-0.2187856
-0.0540415,0.6818771,-0.0587527,-0.1906776,-0.1954460,-0.1716042,-0.1874987,-0.1859093
-0.0349681,0.6182988,-0.0788371,-0.1853307,-0.1932780,-0.1710256,-0.1773834,-0.1630783
-0.0190735,0.5515416,-0.0872644,-0.1540216,-0.1603794,-0.1444848,-0.1651478,-0.1301797
0.0031789,0.4816055,-0.0967471,-0.1205889,-0.1237679,-0.1031049,-0.1428413,-0.1078733
0.0095367,0.3973643,-0.1136430,-0.0961590,-0.1104641,-0.1041063,-0.1184114,-0.0898012
-0.0047684,0.3019969,-0.1151737,-0.0468270,-0.0722583,-0.0754372,-0.0738478,-0.0341113
0.0000000,0.2002716,-0.1002693,0.0078138,0.0014559,0.0173505,0.0189400,0.0427818
0.0158946,0.0937780,-0.0842985,0.0349108,0.0460370,0.0635211,0.0937208,0.0762367
0.0047684,0.0000000,-0.0572189,0.0635799,0.0810639,0.0747061,0.1144425,0.0969585
-0.0015895,-0.0778834,-0.0179625,0.1171414,0.1330360,0.1393938,0.1441622,0.1616462
0.0158946,-0.1843770,0.0101948,0.1532459,0.1500670,0.1945718,0.1802667,0.1961613
0.0286102,-0.3019969,0.0388877,0.1612759,0.1676337,0.2073701,0.1978334,0.1819388
0.0397364,-0.3735224,0.0813246,0.1909971,0.2386808,0.2625227,0.2339125,0.2275546
0.0397364,-0.4450480,0.1036247,0.2466758,0.2800544,0.3182014,0.2689282,0.2880017
0.0429153,-0.5563100,0.1142963,0.2684736,0.2748315,0.3097995,0.2764209,0.2811893
0.0651677,-0.6628036,0.1297394,0.2410014,0.2759695,0.2855062,0.2759695,0.2759695
0.0619888,-0.7279714,0.1398484,0.2304475,0.2781312,0.2749523,0.2638261,0.3035625
0.0174840,-0.7692973,0.1509873,0.2606599,0.2860912,0.2813228,0.2701966,0.3210592
-0.0111262,-0.8042653,0.1594782,0.2755086,0.3041188,0.2945820,0.3120661,0.3231923
-0.0079473,-0.8249283,0.1684999,0.2749936,0.2956565,0.2972460,0.3290351,0.3083722
0.0000000,-0.8360545,0.1711591,0.2903684,0.2856000,0.2919579,0.2935473,0.2792422
0.0063578,-0.8408229,0.1531506,0.2850755,0.3009701,0.2898439,0.2628231,0.2532864
0.0254313,-0.8074443,0.1642609,0.2628072,0.3025436,0.2866491,0.2612178,0.2405548
0.0317891,-0.7549922,0.1938979,0.2590656,0.2829075,0.2717813,0.2527078,0.2336343
0.0317891,-0.7120768,0.1620801,0.2685738,0.2463214,0.2415530,0.2193006,0.2177111
0.0524521,-0.6612142,0.1143694,0.2574205,0.1874844,0.2113263,0.1747688,0.1763582
0.0635783,-0.6055832,0.0968520,0.1874510,0.1254622,0.1763248,0.1191044,0.1286411
0.0365575,-0.5483627,0.0533597,0.0978645,0.0787910,0.1185274,0.0628964,0.0994539
0.0127157,-0.4593531,0.0093174,0.0665379,0.0490538,0.0585906,0.0411065,0.0824324
0.0222524,-0.3480911,-0.0071780,0.0548108,0.0230217,0.0198428,0.0277901,0.0643476
0.0174840,-0.2543132,-0.0321436,0.0123612,-0.0114806,-0.0067123,-0.0098912,0.0107718
-0.0206629,-0.1700719,-0.0761875,-0.0300932,-0.0443983,-0.0332721,-0.0491667,-0.0698296
-0.0381470,-0.0651677,-0.1085822,-0.0465933,-0.0577195,-0.0608985,-0.0767930,-0.1133506
0.0063578,0.0699361,-0.1160749,-0.0556755,-0.0874647,-0.1081276,-0.1160749,-0.1351484
0.0270208,0.1970927,-0.1225106,-0.0859531,-0.1320473,-0.1542997,-0.1495314,-0.1606576
-0.0031789,0.2924601,-0.1395384,-0.1268228,-0.1490752,-0.1602014,-0.1745065,-0.1760960
-0.0111262,0.3767014,-0.1316500,-0.1586707,-0.1729759,-0.1618497,-0.2079439,-0.2079439
0.0015895,0.4657110,-0.1052141,-0.1989921,-0.2387285,-0.2180656,-0.2387285,-0.2546231
-0.0143051,0.5435944,-0.1052713,-0.2451436,-0.2753433,-0.2769327,-0.2515014,-0.2769327
-0.0127157,0.6087621,-0.1069037,-0.2626705,-0.2690283,-0.2833335,-0.2610811,-0.2801545
0.0158946,0.6596247,-0.0857353,-0.2669334,-0.2732913,-0.2844175,-0.2764702,-0.2828280
-0.0111262,0.6882350,-0.0688092,-0.2706703,-0.2802070,-0.2992805,-0.2674913,-0.2770281
-0.0635783,0.7120768,-0.0545375,-0.2691142,-0.2770615,-0.3056717,-0.2468618,-0.2707036
-0.0588099,0.7406871,-0.0402498,-0.2754895,-0.2723106,-0.3056892,-0.2452898,-0.2754895
-0.0476837,0.7454554,-0.0391897,-0.2791977,-0.2585347,-0.2998606,-0.2410507,-0.2744293
-0.0731150,0.7279714,-0.0423654,-0.2648894,-0.2378686,-0.2887313,-0.2299213,-0.2696578
-0.0794729,0.7263819,-0.0381279,-0.2399890,-0.2352206,-0.2781359,-0.2368100,-0.2765465
-0.0651677,0.7327398,-0.0338888,-0.2293921,-0.2421077,-0.2707179,-0.2405183,-0.2691285
-0.0651677,0.7200241,-0.0375891,-0.2219661,-0.2267345,-0.2473974,-0.2140188,-0.2299134
-0.0429153,0.6993612,-0.0492239,-0.2081696,-0.1986329,-0.2145274,-0.2002223,-0.2097591
-0.0111262,0.6802877,-0.0550286,-0.1837746,-0.1774168,-0.1853641,-0.2076165,-0.1933114
-0.0254313,0.6373723,-0.0518258,-0.1424249,-0.1583195,-0.1392460,-0.1710351,-0.1408354
-0.0333786,0.5626678,-0.0671434,-0.1180061,-0.1513847,-0.0893958,-0.1275428,-0.1084693
0.0015895,0.4784266,-0.0983349,-0.1269452,-0.1317135,-0.0808509,-0.1333030,-0.1110506
0.0111262,0.3910065,-0.1088699,-0.1041015,-0.0834386,-0.0691334,-0.1184066,-0.0707229
-0.0190735,0.2813339,-0.1019192,-0.0431093,-0.0446987,-0.0224463,-0.0526460,0.0029850
-0.0174840,0.1764297,-0.0880734,-0.0070111,-0.0149584,0.0200097,0.0041151,0.0422621
0.0063578,0.0969569,-0.0662899,0.0322564,0.0370248,0.0513299,0.0497405,0.0735823
0.0079473,0.0031789,-0.0482130,0.0916592,0.0868909,0.0789436,0.0868909,0.1139116
-0.0031789,-0.1049042,-0.0322501,0.1203378,0.1203378,0.1060327,0.1171589,0.1346429
-0.0158946,-0.2066294,-0.0147025,0.1188119,0.1458327,0.1474222,0.1553694,0.1442432
0.0095367,-0.2940496,0.0060272,0.1411311,0.1617940,0.1856359,0.1792781,0.1665624
0.0683467,-0.3608068,0.0596031,0.2090120,0.1915280,0.2137804,0.2074226,0.2026542
0.0762939,-0.4466375,0.1174132,0.2763589,0.2493382,0.2684116,0.2731800,0.2477487
0.0254313,-0.5912781,0.1095454,0.2716700,0.2700806,0.3145854,0.3066381,0.2812068
0.0174840,-0.7136663,0.1085647,0.2261845,0.2436686,0.3024785,0.2818155,0.2786366
0.0588099,-0.7406871,0.1674064,0.2309847,0.2452898,0.2818473,0.2707211,0.2834368
0.0747045,-0.7343292,0.1965475,0.2585363,0.2744309,0.3030411,0.2982728,0.3380092
0.0381470,-0.7756551,0.1859665,0.2670288,0.2813339,0.3290176,0.3274282,0.3576279
-0.0079473,-0.8424123,0.1981815,0.2887805,0.2665281,0.3173908,0.3380537,0.3030856
0.0000000,-0.8630753,0.1976681,0.3057512,0.2676042,0.2866777,0.3343614,0.2850882
0.0238419,-0.8376439,0.1732874,0.2766021,0.3004440,0.2861389,0.3370015,0.3099807
0.0127157,-0.8090337,0.1658471,0.2357833,0.3025405,0.2866459,0.3168456,0.2786986
0.0301997,-0.7613500,0.1568143,0.2378766,0.2490028,0.2410555,0.2601290,0.2140347
0.0635783,-0.7025401,0.1244672,0.2516238,0.2150663,0.2150663,0.2261925,0.1800982
0.0460943,-0.6612142,0.0942341,0.2182118,0.1991383,0.2261591,0.1991383,0.1530441
0.0254313,-0.6024043,0.0894197,0.1673031,0.1434612,0.1800187,0.1339245,0.1180299
0.0127157,-0.5197525,0.0914796,0.1407528,0.0994269,0.1105531,0.0867112,0.0962480
0.0031789,-0.4307429,0.0585683,0.0998942,0.0887680,0.1078415,0.0808207,0.0919469
0.0206629,-0.3401438,-0.0029453,0.0256650,0.0224861,0.0654014,0.0367912,0.0717592
0.0381470,-0.2511342,-0.0528018,-0.0321388,-0.0766436,-0.0512123,-0.0496229,-0.0098864
0.0254313,-0.1335144,-0.0862630,-0.0528844,-0.0973892,-0.1037470,-0.0973892,-0.0878525
-0.0063578,0.0000000,-0.1155027,-0.0551033,-0.0646400,-0.0932503,-0.0868924,-0.0916608
-0.0254313,0.0953674,-0.1346461,-0.0774256,-0.0694784,-0.1187515,-0.0933202,-0.1139832
-0.0031789,0.1907349,-0.1468881,-0.1246357,-0.1198673,-0.1643721,-0.1564248,-0.1961613
0.0143051,0.3115336,-0.1676257,-0.1628574,-0.1660363,-0.2041833,-0.2343829,-0.2391513
-0.0206629,0.4069010,-0.1560450,-0.1735290,-0.1989603,-0.2418756,-0.2625386,-0.2339284
-0.0445048,0.4800161,-0.1041794,-0.1868312,-0.2297465,-0.2583567,-0.2472305,-0.2361043
-0.0222524,0.5594889,-0.0920391,-0.2223746,-0.2621110,-0.2748267,-0.2573427,-0.2541637
-0.0111262,0.6246567,-0.1032050,-0.2462562,-0.2716875,-0.2764559,-0.2748664,-0.2700981
-0.0238419,0.6723404,-0.0719817,-0.2420537,-0.2563588,-0.2515904,-0.2579482,-0.2706639
-0.0238419,0.7200241,-0.0402244,-0.2452644,-0.2548011,-0.2643379,-0.2548011,-0.2706957
-0.0206629,0.7502238,-0.0450118,-0.2564096,-0.2659464,-0.2945566,-0.2675358,-0.2691253
-0.0445048,0.7406871,-0.0466029,-0.2738953,-0.2675374,-0.2866109,-0.2500534,-0.2611796
-0.0747045,0.7279714,-0.0466045,-0.2913809,-0.2786652,-0.2882020,-0.2325710,-0.2627707
-0.0747045,0.7343292,-0.0566753,-0.2887360,-0.2839677,-0.3093990,-0.2458207,-0.2633047
-0.0667572,0.7422765,-0.0492605,-0.2701950,-0.2543004,-0.2924474,-0.2399953,-0.2543004
-0.0699361,0.7406871,-0.0333659,-0.2479426,-0.2256902,-0.2543004,-0.2145640,-0.2447637
-0.0667572,0.7311503,-0.0312392,-0.2203846,-0.2092584,-0.2346897,-0.2156162,-0.2362792
-0.0619888,0.7025401,-0.0439342,-0.2044694,-0.1917537,-0.2283112,-0.2203639,-0.2171850
-0.0603994,0.6643931,-0.0539748,-0.1827208,-0.1874892,-0.2097416,-0.1874892,-0.1811314
-0.0492732,0.6198883,-0.0634782,-0.1350037,-0.1715612,-0.1636140,-0.1620245,-0.1477194
-0.0206629,0.5610784,-0.0756152,-0.1042255,-0.1423724,-0.1185306,-0.1725721,-0.1376041
0.0111262,0.4831950,-0.0872087,-0.1046928,-0.1301241,-0.0951560,-0.1682711,-0.1110506
0.0333786,0.3973643,-0.1009194,-0.0818459,-0.0977405,-0.0500568,-0.0993299,-0.0436989
0.0460943,0.3178914,-0.1103989,-0.0309261,-0.0356944,0.0119893,-0.0134420,0.0215260
0.0476837,0.2193451,-0.1018556,0.0109959,0.0046380,0.0332483,0.0157642,0.0539112
0.0317891,0.0890096,-0.0768725,0.0296211,0.0455157,0.0439262,0.0264422,0.0709470
0.0222524,-0.0286102,-0.0566641,0.0355244,0.0943343,0.0816186,0.0704924,0.0847975
0.0095367,-0.1239777,-0.0412401,0.0875060,0.1304213,0.1320108,0.1288319,0.1224740
-0.0127157,-0.2272924,0.0118033,0.1691596,0.1723385,0.1882331,0.1739279,0.1818752
-0.0143051,-0.3274282,0.0696198,0.2126710,0.2237972,0.2381023,0.2110815,0.2142604
0.0174840,-0.3989538,0.0876919,0.2323325,0.2498166,0.2593533,0.2323325,0.2259747
0.0556310,-0.4768372,0.1073599,0.2535899,0.2424637,0.2615372,0.2297481,0.2583583
0.0588099,-0.5737940,0.1418638,0.2658415,0.2276945,0.2721993,0.2419996,0.2912728
0.0460943,-0.6437302,0.1392571,0.2616453,0.2457507,0.2966134,0.2854872,0.2997923
0.0619888,-0.6739299,0.1376931,0.2553129,0.2839231,0.3252490,0.3125334,0.3093545
0.0826518,-0.7088979,0.1647441,0.2632904,0.2871323,0.3332265,0.2950795,0.3332265
0.0603994,-0.7820129,0.1647854,0.2569739,0.2601528,0.3062471,0.2824052,0.3205522
0.0111262,-0.8551280,0.1436249,0.2278662,0.2517080,0.2755499,0.2978023,0.2787288
0.0079473,-0.8535385,0.1568683,0.2252150,0.2585936,0.2633619,0.2967405,0.2744881
0.0286102,-0.8090337,0.1955223,0.2559217,0.2781741,0.2797635,0.2877108,0.2940687
0.0031789,-0.7979075,0.1907380,0.2622636,0.2908738,0.2988211,0.2940528,0.2702109
-0.0079473,-0.7788340,0.1499255,0.2357562,0.2611876,0.2786716,0.2770821,0.2135038
0.0238419,-0.7184347,0.1318820,0.2193022,0.2065865,0.2097654,0.2240705,0.1779763
0.0190735,-0.6596247,0.1185958,0.2139632,0.1694584,0.1424376,0.1599216,0.1424376
-0.0095367,-0.5880992,0.0692654,0.1868852,0.1598644,0.1407909,0.1121807,0.1074123
0.0047684,-0.4863739,0.0146310,0.1386086,0.1465559,0.1624505,0.0654936,0.0988722
0.0397364,-0.3878276,-0.0108544,0.0988181,0.0956392,0.1115338,0.0145769,0.0765657
0.0556310,-0.2861023,-0.0040293,0.0706752,0.0277599,0.0372966,-0.0215133,0.0293493
0.0460943,-0.1843770,-0.0173457,0.0255696,-0.0268825,0.0064961,-0.0507243,-0.0078090
0.0190735,-0.1001358,-0.0650946,-0.0269477,-0.0650946,-0.0205898,-0.0825787,-0.0348949
-0.0111262,-0.0127157,-0.0953627,-0.0508579,-0.0762892,-0.0667524,-0.0953627,-0.0635735
-0.0317891,0.0715256,-0.1293341,-0.1023134,-0.1054923,-0.1293341,-0.1325130,-0.1341025
-0.0317891,0.1684825,-0.1792018,-0.1760228,-0.1585388,-0.1807912,-0.1887385,-0.1998647
0.0031789,0.3178914,-0.1755810,-0.1867072,-0.1724021,-0.1930650,-0.2073701,-0.1946545
0.0270208,0.4498164,-0.1306264,-0.1624155,-0.1798995,-0.1989730,-0.2275832,-0.2085098
0.0047684,0.5038579,-0.1174243,-0.1953077,-0.2223285,-0.2350442,-0.2684228,-0.2779595
-0.0254313,0.5547206,-0.1116403,-0.2276707,-0.2356180,-0.2546914,-0.2626387,-0.2817122
-0.0333786,0.6310145,-0.0820239,-0.2060016,-0.2123594,-0.2425591,-0.2298435,-0.2425591
-0.0381470,0.6802877,-0.0603358,-0.2049764,-0.2272288,-0.2463023,-0.2383550,-0.2621969
-0.0476837,0.7136663,-0.0444667,-0.2320226,-0.2558645,-0.2638117,-0.2669907,-0.2924220
-0.0572205,0.7454554,-0.0296561,-0.2458223,-0.2521801,-0.2823798,-0.2648958,-0.2792009
-0.0635783,0.7534027,-0.0286039,-0.2574857,-0.2527173,-0.2892749,-0.2511279,-0.2670225
-0.0524521,0.7565816,-0.0317812,-0.2765576,-0.2686103,-0.2781471,-0.2574841,-0.2717892
-0.0556310,0.7581711,-0.0280746,-0.2823877,-0.2760299,-0.2792088,-0.2633142,-0.2680826
-0.0747045,0.7422765,-0.0291300,-0.2770853,-0.2707275,-0.2913904,-0.2500645,-0.2580118
-0.0683467,0.7295609,-0.0381263,-0.2654187,-0.2447557,-0.2765449,-0.2288612,-0.2495241
-0.0556310,0.7168452,-0.0524187,-0.2447430,-0.2145433,-0.2590481,-0.2145433,-0.2383852
-0.0651677,0.6866455,-0.0645876,-0.2362490,-0.2139966,-0.2505541,-0.2092282,-0.2155860
-0.0492732,0.6564458,-0.0693305,-0.2266868,-0.2187395,-0.2187395,-0.1964871,-0.1853609
-0.0254313,0.6151199,-0.0745932,-0.1588345,-0.1779079,-0.1731396,-0.1747290,-0.1492977
-0.0397364,0.5420049,-0.0851456,-0.0740194,-0.1185242,-0.1328293,-0.1503134,-0.1248821
-0.0540415,0.4514058,-0.0978057,-0.0564798,-0.0962162,-0.0882689,-0.1311843,-0.1073424
-0.0238419,0.3671646,-0.1083358,-0.0638310,-0.0844940,-0.0463470,-0.1115147,-0.0638310
0.0127157,0.3035863,-0.0960954,-0.0309277,-0.0356960,-0.0039069,-0.0627168,0.0040404
0.0190735,0.2352397,-0.0642586,-0.0006803,0.0104459,0.0470034,0.0040881,0.0549507
0.0270208,0.1351039,-0.0461753,0.0174030,0.0285292,0.0809813,0.0539605,0.0873391
0.0381470,0.0079473,-0.0407887,0.0625261,0.0450420,0.0943152,0.0704734,0.1213360
0.0381470,-0.1176198,-0.0226911,0.1044655,0.0869815,0.1155917,0.0885709,0.1489703
0.0349681,-0.2272924,-0.0024859,0.1055972,0.1278496,0.1644071,0.1485125,0.1818911
0.0397364,-0.3306071,0.0113599,0.1067273,0.1496426,0.2005053,0.2148104,0.2100420
0.0254313,-0.4371007,0.0326188,0.1327546,0.1947435,0.2201748,0.2360694,0.2233537
0.0000000,-0.5245209,0.0623385,0.1847267,0.2610207,0.2594312,0.2546628,0.2467155
0.0095367,-0.5880992,0.1042398,0.2361647,0.2806695,0.2870274,0.2981536,0.2790801
0.0397364,-0.6500880,0.1482662,0.2531703,0.2579387,0.2770122,0.3040330,0.2881384
0.0572205,-0.7088979,0.1763916,0.2495066,0.2638117,0.2908325,0.2717590,0.2765274
0.0667572,-0.7422765,0.2002589,0.2701950,0.2972158,0.3178787,0.2781423,0.2765528
0.0476837,-0.7661184,0.2082157,0.2876886,0.3019937,0.3162988,0.3226566,0.2908675
0.0222524,-0.8010864,0.1965745,0.2792263,0.2919420,0.3157838,0.3284995,0.2982998
0.0445048,-0.8312861,0.1944828,0.2421665,0.2914397,0.3041553,0.2803135,0.2930291
0.0588099,-0.8312861,0.1944876,0.2119716,0.2691921,0.2676026,0.2453502,0.2739604
0.0127157,-0.8074443,0.1637268,0.2304840,0.2273051,0.2352524,0.2543259,0.2543259
-0.0206629,-0.7756551,0.1213090,0.2468761,0.2103186,0.2119080,0.2452866,0.2278026
-0.0015895,-0.7327398,0.1069816,0.2023490,0.2007596,0.1896334,0.1991701,0.1848650
0.0158946,-0.6691615,0.1021767,0.1593971,0.1752917,0.1752917,0.1721128,0.1371447
0.0254313,-0.5849202,0.0660960,0.1630529,0.1439794,0.1423899,0.1376216,0.0931168
0.0413259,-0.4847844,0.0321261,0.1433881,0.1147779,0.0813993,0.0734520,0.0543785
0.0445048,-0.3735224,0.0288741,0.0924524,0.0892735,0.0543054,0.0415897,0.0352319
0.0270208,-0.2749761,0.0129080,0.0574128,0.0526444,0.0621812,0.0335709,0.0240342
-0.0031789,-0.1955032,-0.0433159,0.0282097,0.0011889,0.0329781,-0.0131162,-0.0131162
-0.0031789,-0.0905991,-0.0958379,-0.0084178,-0.0306702,-0.0227229,-0.0640488,-0.0513331
0.0301997,0.0238419,-0.1149766,-0.0450404,-0.0513983,-0.0657034,-0.0863663,-0.0768296
0.0445048,0.1128515,-0.1176802,-0.0938384,-0.1017857,-0.1129119,-0.1113224,-0.1145013
0.0143051,0.2066294,-0.1341772,-0.1484823,-0.1643769,-0.1627874,-0.1659664,-0.1564296
-0.0143051,0.3178914,-0.1475064,-0.1888323,-0.2174425,-0.2126741,-0.2381055,-0.1999585
-0.0349681,0.3941854,-0.1518027,-0.2153810,-0.2455807,-0.2535280,-0.2853171,-0.2503490
-0.0460943,0.4577637,-0.1439015,-0.2297322,-0.2424479,-0.2551635,-0.2647003,-0.2821843
-0.0349681,0.5547206,-0.1084646,-0.2372106,-0.2467473,-0.2451579,-0.2276738,-0.2848943
-0.0254313,0.6453196,-0.0783221,-0.2309100,-0.2611097,-0.2595202,-0.2404467,-0.2785937
-0.0603994,0.6850561,-0.0672340,-0.2214114,-0.2420743,-0.2802213,-0.2643267,-0.2770424
-0.0826518,0.7104874,-0.0492446,-0.2368005,-0.2224954,-0.2813053,-0.2606424,-0.2844842
-0.0429153,0.7502238,-0.0328334,-0.2601258,-0.2474101,-0.2776098,-0.2489996,-0.2791993
-0.0333786,0.7597605,-0.0312471,-0.2601290,-0.2728446,-0.2903287,-0.2521817,-0.2680763
